7       3017
7.02    2925
7.04    3056
7.06    2983
7.08    3008
7.1     2953
7.12    2875
7.14    2976
7.16    2886
7.18    2928
7.2     2973
7.22    2831
7.24    2960
7.26    2821
7.28    2854
7.3     2900
7.32    2857
7.34    2798
7.36    2876
7.38    2798
7.4     2819
7.42    2865
7.44    2830
7.46    2735
7.48    2771
7.5     2813
7.52    2806
7.54    2704
7.56    2823
7.58    2878
7.6     2793
7.62    2795
7.64    2756
7.66    2722
7.68    2705
7.7     2736
7.72    2802
7.74    2657
7.76    2811
7.78    2736
7.8     2753
7.82    2722
7.84    2780
7.86    2734
7.88    2795
7.9     2741
7.92    2812
7.94    2808
7.96    2713
7.98    2746
8       2696
8.02    2747
8.04    2799
8.06    2876
8.08    2741
8.1     2921
8.12    2776
8.14    2966
8.16    3017
8.18    3082
8.2     3058
8.22    3193
8.24    3147
8.26    3309
8.28    3319
8.3     3404
8.32    3490
8.34    3554
8.36    3684
8.38    3845
8.4     4015
8.42    4069
8.44    4293
8.46    4450
8.48    4657
8.5     4905
8.52    5201
8.54    5587
8.56    5796
8.58    6172
8.6     6646
8.62    7225
8.64    7834
8.66    8918
8.68    9767
8.7     10641
8.72    11891
8.74    13411
8.76    15091
8.78    17902
8.8     20543
8.82    23790
8.84    26495
8.86    27067
8.88    24071
8.9     17275
8.92    9514
8.94    4867
8.96    3228
8.98    2881
9       2755
9.02    2764
9.04    2675
9.06    2785
9.08    2736
9.1     2767
9.12    2691
9.14    2726
9.16    2829
9.18    2920
9.2     3064
9.22    3028
9.24    3182
9.26    3154
9.28    3359
9.3     3474
9.32    3585
9.34    3732
9.36    3833
9.38    4225
9.4     4348
9.42    4547
9.44    4836
9.46    5292
9.48    5395
9.5     5783
9.52    6434
9.54    6833
9.56    7665
9.58    8265
9.6     9147
9.62    10115
9.64    11499
9.66    12836
9.68    14477
9.7     16942
9.72    19916
9.74    23651
9.76    27005
9.78    29012
9.8     28933
9.82    24173
9.84    16291
9.86    8627
9.88    4614
9.9     3143
9.92    2643
9.94    2690
9.96    2714
9.98    2684
10      2740
10.02   2691
10.04   2808
10.06   2781
10.08   2918
10.1    2871
10.12   3079
10.14   3137
10.16   3318
10.18   3395
10.2    3690
10.22   3834
10.24   4117
10.26   4372
10.28   4561
10.3    5036
10.32   5425
10.34   5873
10.36   6391
10.38   6963
10.4    7926
10.42   8733
10.44   10045
10.46   11392
10.48   13339
10.5    15444
10.52   17579
10.54   20264
10.56   21705
10.58   20298
10.6    15745
10.62   9940
10.64   5795
10.66   4048
10.68   3697
10.7    3696
10.72   3886
10.74   4183
10.76   4404
10.78   4615
10.8    5063
10.82   5491
10.84   6178
10.86   6841
10.88   7236
10.9    8120
10.92   8730
10.94   9735
10.96   10928
10.98   12291
11      14042
11.02   15754
11.04   18121
11.06   20420
11.08   23813
11.1    28098
11.12   32874
11.14   38967
11.16   46275
11.18   53929
11.2    59776
11.22   61769
11.24   55140
11.26   40592
11.28   23707
11.3    11254
11.32   5510
11.34   3568
11.36   3030
11.38   2900
11.4    2721
11.42   2576
11.44   2650
11.46   2726
11.48   2752
11.5    2886
11.52   2961
11.54   3114
11.56   3261
11.58   3403
11.6    3555
11.62   3921
11.64   4031
11.66   4473
11.68   4734
11.7    5243
11.72   5805
11.74   6479
11.76   7136
11.78   8189
11.8    9138
11.82   10238
11.84   11758
11.86   13651
11.88   16343
11.9    19290
11.92   22111
11.94   25225
11.96   26715
11.98   24650
12      19022
12.02   11559
12.04   5987
12.06   3359
12.08   2376
12.1    2157
12.12   2102
12.14   2119
12.16   2058
12.18   1965
12.2    1921
12.22   1960
12.24   1894
12.26   1833
12.28   1828
12.3    1841
12.32   1859
12.34   2000
12.36   1862
12.38   1869
12.4    2001
12.42   1937
12.44   1941
12.46   1918
12.48   1955
12.5    1939
12.52   1897
12.54   1932
12.56   2013
12.58   1985
12.6    2105
12.62   2060
12.64   2131
12.66   2195
12.68   2250
12.7    2336
12.72   2391
12.74   2440
12.76   2744
12.78   2815
12.8    3056
12.82   3196
12.84   3463
12.86   3635
12.88   4090
12.9    4571
12.92   4871
12.94   5306
12.96   5947
12.98   6648
13      7551
13.02   8690
13.04   9899
13.06   11572
13.08   13607
13.1    15821
13.12   18648
13.14   20876
13.16   22153
13.18   19918
13.2    15458
13.22   10064
13.24   5783
13.26   3655
13.28   3025
13.3    2888
13.32   2882
13.34   3019
13.36   3179
13.38   3418
13.4    3728
13.42   4176
13.44   4523
13.46   4990
13.48   5572
13.5    6202
13.52   6993
13.54   8143
13.56   9276
13.58   10063
13.6    11770
13.62   13535
13.64   15644
13.66   18415
13.68   21567
13.7    25086
13.72   29243
13.74   33633
13.76   38367
13.78   42229
13.8    43981
13.82   43194
13.84   37584
13.86   26712
13.88   15569
13.9    7972
13.92   4211
13.94   2853
13.96   2343
13.98   2176
14      2024
14.02   1982
14.04   1793
14.06   1835
14.08   1727
14.1    1776
14.12   1743
14.14   1773
14.16   1728
14.18   1727
14.2    1825
14.22   1845
14.24   1723
14.26   1746
14.28   1671
14.3    1688
14.32   1785
14.34   1798
14.36   1930
14.38   1796
14.4    1903
14.42   1855
14.44   1999
14.46   2008
14.48   2042
14.5    2197
14.52   2227
14.54   2364
14.56   2409
14.58   2505
14.6    2819
14.62   2936
14.64   3074
14.66   3431
14.68   3754
14.7    4076
14.72   4652
14.74   5117
14.76   5939
14.78   6664
14.8    7679
14.82   8848
14.84   9426
14.86   9298
14.88   8325
14.9    6304
14.92   4557
14.94   3235
14.96   2631
14.98   2348
15      2558
15.02   2713
15.04   2821
15.06   3077
15.08   3326
15.1    3706
15.12   4022
15.14   4423
15.16   4967
15.18   5748
15.2    6576
15.22   7375
15.24   8726
15.26   10022
15.28   11675
15.3    13527
15.32   15804
15.34   18721
15.36   22027
15.38   26491
15.4    30933
15.42   34921
15.44   36838
15.46   33805
15.48   26230
15.5    17655
15.52   10744
15.54   7126
15.56   6012
15.58   6144
15.6    6656
15.62   7512
15.64   8621
15.66   9874
15.68   11427
15.7    13541
15.72   15705
15.74   18398
15.76   21790
15.78   25875
15.8    30784
15.82   37270
15.84   44362
15.86   53622
15.88   63692
15.9    73112
15.92   81371
15.94   82555
15.96   73053
15.98   53485
16      33280
16.02   18803
16.04   10264
16.06   7265
16.08   6563
16.1    6244
16.12   5698
16.14   4701
16.16   3391
16.18   2643
16.2    2120
16.22   1920
16.24   1832
16.26   1819
16.28   1835
16.3    1787
16.32   1798
16.34   1739
16.36   1868
16.38   1831
16.4    1845
16.42   1946
16.44   2044
16.46   2046
16.48   2125
16.5    2475
16.52   2504
16.54   2693
16.56   3107
16.58   3327
16.6    3735
16.62   4011
16.64   4806
16.66   5308
16.68   6071
16.7    7202
16.72   8095
16.74   9564
16.76   11006
16.78   12938
16.8    15793
16.82   18633
16.84   22442
16.86   26084
16.88   29666
16.9    31682
16.92   31126
16.94   25219
16.96   17565
16.98   10683
17      6287
17.02   4045
17.04   3348
17.06   3253
17.08   2907
17.1    2668
17.12   2381
17.14   1950
17.16   1740
17.18   1687
17.2    1695
17.22   1672
17.24   1619
17.26   1589
17.28   1592
17.3    1578
17.32   1612
17.34   1671
17.36   1643
17.38   1699
17.4    1716
17.42   1787
17.44   1757
17.46   1809
17.48   1911
17.5    1949
17.52   1999
17.54   2054
17.56   2046
17.58   2113
17.6    2106
17.62   2197
17.64   2349
17.66   2538
17.68   2647
17.7    2863
17.72   3144
17.74   3330
17.76   3679
17.78   3761
17.8    3586
17.82   3211
17.84   2567
17.86   2216
17.88   1952
17.9    1830
17.92   1819
17.94   1814
17.96   1894
17.98   2001
18      2117
18.02   2281
18.04   2412
18.06   2637
18.08   2921
18.1    3267
18.12   3684
18.14   4191
18.16   4757
18.18   5560
18.2    6436
18.22   7285
18.24   8605
18.26   9885
18.28   11838
18.3    14157
18.32   16724
18.34   19636
18.36   23058
18.38   26825
18.4    30317
18.42   30192
18.44   26441
18.46   19201
18.48   12638
18.5    7490
18.52   4220
18.54   2883
18.56   2476
18.58   2262
18.6    2289
18.62   2395
18.64   2369
18.66   2501
18.68   2685
18.7    2610
18.72   2715
18.74   2667
18.76   2323
18.78   2136
18.8    1955
18.82   1762
18.84   1721
18.86   1664
18.88   1653
18.9    1605
18.92   1690
18.94   1554
18.96   1654
18.98   1667
19      1699
19.02   1674
19.04   1794
19.06   1828
19.08   1782
19.1    1879
19.12   1994
19.14   2149
19.16   2213
19.18   2415
19.2    2528
19.22   2833
19.24   3136
19.26   3539
19.28   3894
19.3    4484
19.32   5302
19.34   5966
19.36   6960
19.38   8196
19.4    9780
19.42   11453
19.44   13546
19.46   16124
19.48   18735
19.5    21903
19.52   24410
19.54   25973
19.56   24161
19.58   19943
19.6    14564
19.62   10272
19.64   7452
19.66   6106
19.68   5828
19.7    6230
19.72   7134
19.74   8106
19.76   9676
19.78   11466
19.8    13585
19.82   16170
19.84   19188
19.86   23366
19.88   27679
19.9    32580
19.92   38074
19.94   42176
19.96   43251
19.98   39521
20      30508
20.02   21106
20.04   13073
20.06   7486
20.08   4436
20.1    2977
20.12   2457
20.14   2252
20.16   2159
20.18   1917
20.2    1972
20.22   1880
20.24   1867
20.26   1874
20.28   1854
20.3    1832
20.32   1794
20.34   1917
20.36   1890
20.38   2072
20.4    2063
20.42   2066
20.44   2119
20.46   2275
20.48   2502
20.5    2677
20.52   2905
20.54   3272
20.56   3645
20.58   4219
20.6    4744
20.62   5561
20.64   6337
20.66   7719
20.68   8864
20.7    10774
20.72   12812
20.74   15165
20.76   18306
20.78   22089
20.8    26077
20.82   30056
20.84   33887
20.86   35839
20.88   33434
20.9    27120
20.92   19583
20.94   13055
20.96   8340
20.98   5363
21      4293
21.02   3998
21.04   4270
21.06   4692
21.08   5173
21.1    5905
21.12   6672
21.14   7701
21.16   9119
21.18   10463
21.2    12197
21.22   13920
21.24   14970
21.26   14620
21.28   13660
21.3    13467
21.32   13192
21.34   14409
21.36   16058
21.38   18457
21.4    20894
21.42   22382
21.44   23610
21.46   22010
21.48   18451
21.5    13859
21.52   10051
21.54   7227
21.56   5323
21.58   4472
21.6    4531
21.62   4754
21.64   5223
21.66   5855
21.68   6817
21.7    7731
21.72   9057
21.74   10631
21.76   12581
21.78   15008
21.8    17393
21.82   19699
21.84   21460
21.86   21592
21.88   21361
21.9    21814
21.92   22788
21.94   24539
21.96   26192
21.98   27043
22      24823
22.02   20062
22.04   14535
22.06   9867
22.08   6413
22.1    4190
22.12   3318
22.14   3064
22.16   3053
22.18   3220
22.2    3273
22.22   3373
22.24   3107
22.26   3048
22.28   2863
22.3    2732
22.32   2603
22.34   2679
22.36   2855
22.38   3134
22.4    3390
22.42   3723
22.44   4150
22.46   4756
22.48   5294
22.5    5953
22.52   6711
22.54   7641
22.56   8361
22.58   8299
22.6    7863
22.62   6499
22.64   5248
22.66   4274
22.68   3479
22.7    3081
22.72   2971
22.74   3118
22.76   3352
22.78   3688
22.8    4093
22.82   4593
22.84   5131
22.86   5852
22.88   6671
22.9    7394
22.92   8055
22.94   8049
22.96   7672
22.98   6597
23      5651
23.02   5041
23.04   4655
23.06   4639
23.08   4967
23.1    5526
23.12   6546
23.14   7649
23.16   9100
23.18   10619
23.2    12528
23.22   14759
23.24   17318
23.26   19863
23.28   21990
23.3    22829
23.32   21100
23.34   17577
23.36   13444
23.38   10425
23.4    7796
23.42   6017
23.44   4848
23.46   4290
23.48   3910
23.5    3610
23.52   3611
23.54   3632
23.56   3844
23.58   4137
23.6    4325
23.62   4518
23.64   4356
23.66   3975
23.68   3598
23.7    3297
23.72   2972
23.74   2886
23.76   2905
23.78   3159
23.8    3518
23.82   3915
23.84   4465
23.86   5193
23.88   5973
23.9    6986
23.92   8174
23.94   9815
23.96   11397
23.98   13401
24      15297
24.02   17272
24.04   19561
24.06   22057
24.08   23650
24.1    23154
24.12   19907
24.14   15965
24.16   12671
24.18   10034
24.2    8281
24.22   7705
24.24   8090
24.26   8980
24.28   10496
24.3    12441
24.32   14813
24.34   17023
24.36   19764
24.38   23259
24.4    26804
24.42   29018
24.44   29131
24.46   25696
24.48   20053
24.5    14682
24.52   10478
24.54   6853
24.56   4385
24.58   3237
24.6    2739
24.62   2578
24.64   2621
24.66   2728
24.68   2888
24.7    3157
24.72   3448
24.74   3800
24.76   4180
24.78   4944
24.8    5840
24.82   6800
24.84   7854
24.86   8936
24.88   10608
24.9    12350
24.92   14073
24.94   16147
24.96   17047
24.98   17110
25      14992
25.02   11951
25.04   9073
25.06   6709
25.08   4691
25.1    3263
25.12   2447
25.14   2060
25.16   1931
25.18   1880
25.2    1770
25.22   1725
25.24   1822
25.26   1684
25.28   1689
25.3    1671
25.32   1692
25.34   1626
25.36   1621
25.38   1583
25.4    1539
25.42   1510
25.44   1527
25.46   1520
25.48   1522
25.5    1621
25.52   1585
25.54   1572
25.56   1538
25.58   1510
25.6    1570
25.62   1566
25.64   1586
25.66   1649
25.68   1656
25.7    1678
25.72   1704
25.74   1632
25.76   1726
25.78   1824
25.8    1906
25.82   1817
25.84   2005
25.86   2029
25.88   2027
25.9    1975
25.92   1883
25.94   1835
25.96   1786
25.98   1730
26      1700
26.02   1689
26.04   1683
26.06   1652
26.08   1712
26.1    1730
26.12   1743
26.14   1861
26.16   1847
26.18   1908
26.2    2119
26.22   2071
26.24   2215
26.26   2354
26.28   2508
26.3    2539
26.32   2799
26.34   2787
26.36   2598
26.38   2416
26.4    2317
26.42   2117
26.44   2147
26.46   2159
26.48   2164
26.5    2258
26.52   2327
26.54   2624
26.56   2868
26.58   3064
26.6    3402
26.62   3838
26.64   4284
26.66   5000
26.68   5640
26.7    6588
26.72   7578
26.74   8811
26.76   10022
26.78   11647
26.8    12644
26.82   12823
26.84   12314
26.86   10853
26.88   9523
26.9    8380
26.92   7564
26.94   6747
26.96   6182
26.98   5762
27      5577
27.02   5624
27.04   5908
27.06   6561
27.08   7265
27.1    8411
27.12   10132
27.14   11741
27.16   14028
27.18   16216
27.2    18773
27.22   21438
27.24   22964
27.26   23211
27.28   20521
27.3    16158
27.32   12404
27.34   9802
27.36   7248
27.38   4941
27.4    3787
27.42   3455
27.44   3394
27.46   3588
27.48   3716
27.5    4095
27.52   4697
27.54   5293
27.56   6268
27.58   7262
27.6    8430
27.62   9900
27.64   11457
27.66   13403
27.68   15340
27.7    16997
27.72   18620
27.74   19042
27.76   18428
27.78   17345
27.8    15427
27.82   13272
27.84   11586
27.86   10449
27.88   8716
27.9    7162
27.92   6022
27.94   5303
27.96   4829
27.98   4576
28      4295
28.02   4277
28.04   4220
28.06   3913
28.08   3665
28.1    3385
28.12   3251
28.14   3035
28.16   3035
28.18   3160
28.2    3259
28.22   3377
28.24   3798
28.26   4043
28.28   4184
28.3    4560
28.32   4820
28.34   5073
28.36   5585
28.38   6275
28.4    7178
28.42   8213
28.44   9741
28.46   11587
28.48   13406
28.5    15910
28.52   18867
28.54   21587
28.56   24944
28.58   26807
28.6    26740
28.62   26105
28.64   25865
28.66   26156
28.68   26812
28.7    26690
28.72   25069
28.74   22098
28.76   18230
28.78   15096
28.8    12381
28.82   10180
28.84   8277
28.86   6945
28.88   6498
28.9    6012
28.92   5522
28.94   4694
28.96   4107
28.98   3820
29      3413
29.02   3280
29.04   3379
29.06   3414
29.08   3450
29.1    3827
29.12   4138
29.14   4537
29.16   4973
29.18   5084
29.2    4974
29.22   4567
29.24   4112
29.26   3838
29.28   3508
29.3    3456
29.32   3333
29.34   3380
29.36   3474
29.38   3715
29.4    4090
29.42   4161
29.44   4269
29.46   4309
29.48   4012
29.5    3571
29.52   3213
29.54   2815
29.56   2481
29.58   2270
29.6    2092
29.62   1975
29.64   1863
29.66   1916
29.68   1842
29.7    1951
29.72   2044
29.74   2126
29.76   2169
29.78   2195
29.8    2326
29.82   2573
29.84   2724
29.86   2925
29.88   3213
29.9    3446
29.92   3823
29.94   4293
29.96   4626
29.98   4616
30      4707
30.02   4652
30.04   4463
30.06   4284
30.08   4400
30.1    4751
30.12   5127
30.14   5562
30.16   6652
30.18   7499
30.2    8868
30.22   10145
30.24   11488
30.26   12693
30.28   13965
30.3    14389
30.32   14371
30.34   13231
30.36   11282
30.38   9212
30.4    7455
30.42   5992
30.44   4671
30.46   3961
30.48   3407
30.5    3127
30.52   3056
30.54   3050
30.56   2936
30.58   2713
30.6    2522
30.62   2456
30.64   2346
30.66   2317
30.68   2388
30.7    2388
30.72   2520
30.74   2665
30.76   2796
30.78   2862
30.8    3102
30.82   3249
30.84   2929
30.86   2972
30.88   2923
30.9    3055
30.92   3196
30.94   3301
30.96   3479
30.98   3682
31      4257
31.02   4718
31.04   5215
31.06   5784
31.08   6075
31.1    6179
31.12   6144
31.14   6120
31.16   6151
31.18   6335
31.2    6117
31.22   5615
31.24   5037
31.26   4892
31.28   4857
31.3    4972
31.32   5100
31.34   5251
31.36   6045
31.38   6630
31.4    7273
31.42   7971
31.44   8234
31.46   7910
31.48   7026
31.5    5868
31.52   5113
31.54   4370
31.56   3671
31.58   3056
31.6    2680
31.62   2524
31.64   2704
31.66   2706
31.68   2832
31.7    3136
31.72   3431
31.74   3758
31.76   4016
31.78   4762
31.8    5226
31.82   5943
31.84   6644
31.86   7420
31.88   7732
31.9    7618
31.92   7058
31.94   6045
31.96   5445
31.98   4828
32      4326
32.02   3865
32.04   3797
32.06   3717
32.08   3758
32.1    3940
32.12   3749
32.14   3592
32.16   3367
32.18   3239
32.2    3188
32.22   2913
32.24   2722
32.26   2535
32.28   2605
32.3    2561
32.32   2704
32.34   2697
32.36   2881
32.38   3277
32.4    3469
32.42   3836
32.44   4365
32.46   4920
32.48   5697
32.5    6443
32.52   7415
32.54   8668
32.56   9980
32.58   11631
32.6    12944
32.62   14335
32.64   15484
32.66   15856
32.68   16395
32.7    15981
32.72   15709
32.74   14823
32.76   14166
32.78   13100
32.8    11435
32.82   9840
32.84   9029
32.86   8286
32.88   7492
32.9    6572
32.92   6194
32.94   5776
32.96   5692
32.98   5772
33      5848
33.02   6284
33.04   6397
33.06   6678
33.08   6288
33.1    5685
33.12   5040
33.14   4595
33.16   4336
33.18   3973
33.2    3923
33.22   3882
33.24   3966
33.26   4327
33.28   4682
33.3    5128
33.32   5457
33.34   5982
33.36   6255
33.38   6509
33.4    6867
33.42   7136
33.44   7191
33.46   7344
33.48   7682
33.5    7880
33.52   7785
33.54   7367
33.56   6573
33.58   5801
33.6    5387
33.62   5002
33.64   4727
33.66   4150
33.68   3900
33.7    3588
33.72   3493
33.74   3530
33.76   3596
33.78   3668
33.8    3749
33.82   3726
33.84   3568
33.86   3443
33.88   3377
33.9    3403
33.92   3421
33.94   3488
33.96   3738
33.98   4024
34      4505
34.02   5010
34.04   5706
34.06   6441
34.08   7395
34.1    8174
34.12   8738
34.14   8837
34.16   8121
34.18   7298
34.2    6484
34.22   5760
34.24   4880
34.26   4173
34.28   3328
34.3    2861
34.32   2504
34.34   2223
34.36   2118
34.38   1997
34.4    1999
34.42   1908
34.44   1943
34.46   2001
34.48   1987
34.5    2064
34.52   2154
34.54   2216
34.56   2224
34.58   2214
34.6    2211
34.62   2350
34.64   2469
34.66   2486
34.68   2608
34.7    2859
34.72   3002
34.74   3425
34.76   3729
34.78   4096
34.8    4654
34.82   5183
34.84   5704
34.86   6622
34.88   7200
34.9    7779
34.92   8384
34.94   8510
34.96   8595
34.98   8153
35      7034
35.02   6135
35.04   5686
35.06   5236
35.08   4959
35.1    4924
35.12   4902
35.14   5157
35.16   5563
35.18   6059
35.2    6925
35.22   7478
35.24   8286
35.26   9421
35.28   9637
35.3    10077
35.32   9942
35.34   9486
35.36   8744
35.38   7551
35.4    6675
35.42   5835
35.44   4927
35.46   4495
35.48   4014
35.5    3567
35.52   3332
35.54   3237
35.56   3006
35.58   3086
35.6    3069
35.62   3225
35.64   3294
35.66   3322
35.68   3488
35.7    3518
35.72   3649
35.74   3452
35.76   3577
35.78   3399
35.8    3323
35.82   3324
35.84   3256
35.86   3056
35.88   2947
35.9    2979
35.92   2947
35.94   3057
35.96   3103
35.98   3084
36      3230
36.02   3217
36.04   3388
36.06   3399
36.08   3604
36.1    3842
36.12   4207
36.14   4688
36.16   5174
36.18   5879
36.2    6513
36.22   7446
36.24   7994
36.26   8366
36.28   8147
36.3    7623
36.32   6693
36.34   5868
36.36   5186
36.38   4438
36.4    3863
36.42   3350
36.44   2891
36.46   2797
36.48   2693
36.5    2576
36.52   2659
36.54   2618
36.56   2801
36.58   2856
36.6    3107
36.62   3040
36.64   3432
36.66   3598
36.68   3712
36.7    3883
36.72   3966
36.74   4058
36.76   4032
36.78   4236
36.8    4339
36.82   4634
36.84   4996
36.86   5734
36.88   6253
36.9    6755
36.92   7399
36.94   7722
36.96   7869
36.98   7935
37      7452
37.02   6508
37.04   5383
37.06   4736
37.08   4355
37.1    3707
37.12   3129
37.14   2752
37.16   2496
37.18   2302
37.2    2485
37.22   2450
37.24   2621
37.26   2627
37.28   2808
37.3    2891
37.32   3244
37.34   3339
37.36   3290
37.38   3357
37.4    3377
37.42   3480
37.44   3648
37.46   3915
37.48   4165
37.5    4613
37.52   4970
37.54   5452
37.56   5725
37.58   5845
37.6    5948
37.62   5677
37.64   5324
37.66   4796
37.68   4377
37.7    4185
37.72   3864
37.74   3836
37.76   3539
37.78   3585
37.8    3647
37.82   3935
37.84   4081
37.86   4629
37.88   4944
37.9    4968
37.92   5146
37.94   4664
37.96   4313
37.98   3798
38      3520
38.02   3124
38.04   2719
38.06   2430
38.08   2275
38.1    2105
38.12   1970
38.14   1894
38.16   2077
38.18   2017
38.2    2084
38.22   2229
38.24   2374
38.26   2573
38.28   2595
38.3    2793
38.32   2745
38.34   2630
38.36   2497
38.38   2406
38.4    2237
38.42   2167
38.44   2018
38.46   1975
38.48   1872
38.5    1767
38.52   1830
38.54   1812
38.56   1814
38.58   1926
38.6    1856
38.62   1845
38.64   1954
38.66   2037
38.68   1934
38.7    2037
38.72   2062
38.74   2080
38.76   2188
38.78   2171
38.8    2407
38.82   2579
38.84   2636
38.86   2791
38.88   3077
38.9    3169
38.92   3412
38.94   3454
38.96   3707
38.98   3717
39      3886
39.02   4076
39.04   4149
39.06   4013
39.08   3941
39.1    3681
39.12   3464
39.14   3416
39.16   3195
39.18   3141
39.2    3292
39.22   3257
39.24   3417
39.26   3668
39.28   3845
39.3    4114
39.32   4221
39.34   4373
39.36   4216
39.38   3812
39.4    3752
39.42   3662
39.44   3702
39.46   3685
39.48   3704
39.5    3765
39.52   4043
39.54   4254
39.56   4607
39.58   4597
39.6    4643
39.62   4453
39.64   4209
39.66   4015
39.68   3909
39.7    3796
39.72   3601
39.74   3322
39.76   3198
39.78   3032
39.8    3059
39.82   3028
39.84   3101
39.86   2964
39.88   2988
39.9    3052
39.92   3077
39.94   3228
39.96   3518
39.98   3776
40      3809
40.02   4166
40.04   4365
40.06   4484
40.08   4406
40.1    4429
40.12   4333
40.14   4800
40.16   4826
40.18   5173
40.2    5570
40.22   5891
40.24   6325
40.26   6726
40.28   6548
40.3    5892
40.32   5417
40.34   4833
40.36   4485
40.38   4416
40.4    3991
40.42   3698
40.44   3627
40.46   3570
40.48   3674
40.5    3827
40.52   4170
40.54   4507
40.56   4927
40.58   5290
40.6    5523
40.62   5547
40.64   5477
40.66   5260
40.68   4860
40.7    4556
40.72   4401
40.74   4204
40.76   3843
40.78   3530
40.8    3470
40.82   3345
40.84   3402
40.86   3589
40.88   3639
40.9    3975
40.92   4139
40.94   4539
40.96   4911
40.98   5540
41      6067
41.02   6870
41.04   7662
41.06   8050
41.08   8426
41.1    8461
41.12   7941
41.14   7404
41.16   6691
41.18   6069
41.2    5334
41.22   4495
41.24   3912
41.26   3307
41.28   2929
41.3    2574
41.32   2415
41.34   2409
41.36   2294
41.38   2463
41.4    2501
41.42   2590
41.44   2794
41.46   2939
41.48   3036
41.5    3382
41.52   3506
41.54   3857
41.56   4323
41.58   4735
41.6    5117
41.62   5558
41.64   5686
41.66   5606
41.68   5076
41.7    4509
41.72   4124
41.74   3975
41.76   3606
41.78   3429
41.8    3148
41.82   2883
41.84   2935
41.86   2855
41.88   2889
41.9    2931
41.92   3007
41.94   2929
41.96   2778
41.98   2766
42      2699
42.02   2762
42.04   2790
42.06   2710
42.08   2737
42.1    2509
42.12   2378
42.14   2487
42.16   2366
42.18   2407
42.2    2491
42.22   2532
42.24   2663
42.26   2717
42.28   2910
42.3    3215
42.32   3355
42.34   3648
42.36   3972
42.38   4244
42.4    4670
42.42   4917
42.44   5180
42.46   5223
42.48   5477
42.5    5141
42.52   4872
42.54   4237
42.56   4110
42.58   3951
42.6    3807
42.62   3719
42.64   3455
42.66   3393
42.68   3288
42.7    3225
42.72   3195
42.74   2999
42.76   3131
42.78   3208
42.8    2958
42.82   3012
42.84   3180
42.86   3219
42.88   3266
42.9    3358
42.92   3334
42.94   3303
42.96   3109
42.98   3021
43      2942
43.02   2825
43.04   2589
43.06   2724
43.08   2721
43.1    2683
43.12   2758
43.14   2908
43.16   2910
43.18   3261
43.2    3506
43.22   3747
43.24   4075
43.26   4425
43.28   4807
43.3    5248
43.32   5269
43.34   5449
43.36   5508
43.38   5405
43.4    5272
43.42   5107
43.44   5118
43.46   5044
43.48   4712
43.5    4569
43.52   4569
43.54   4626
43.56   4799
43.58   5056
43.6    5226
43.62   5481
43.64   5912
43.66   5878
43.68   5806
43.7    5513
43.72   5094
43.74   4799
43.76   4677
43.78   4612
43.8    4666
43.82   4479
43.84   4356
43.86   4327
43.88   4712
43.9    4775
43.92   4755
43.94   4402
43.96   3988
43.98   3739
44      3603
44.02   3372
44.04   3261
44.06   3073
44.08   2976
44.1    2808
44.12   2713
44.14   2650
44.16   2651
44.18   2777
44.2    2982
44.22   3116
44.24   3158
44.26   3411
44.28   3470
44.3    3565
44.32   3528
44.34   3350
44.36   3227
44.38   3219
44.4    3228
44.42   3188
44.44   3383
44.46   3364
44.48   3252
44.5    3348
44.52   3261
44.54   3151
44.56   3170
44.58   3179
44.6    3267
44.62   3197
44.64   3335
44.66   3339
44.68   3325
44.7    3315
44.72   3403
44.74   3371
44.76   3478
44.78   3524
44.8    3545
44.82   3532
44.84   3521
44.86   3328
44.88   3215
44.9    2866
44.92   2700
44.94   2557
44.96   2534
44.98   2339
45      2292
45.02   2258
45.04   2095
45.06   2125
45.08   2136
45.1    2116
45.12   2095
45.14   2218
45.16   2266
45.18   2409
45.2    2472
45.22   2706
45.24   2748
45.26   2904
45.28   3163
45.3    3264
45.32   3316
45.34   3343
45.36   3447
45.38   3587
45.4    3836
45.42   4051
45.44   4205
45.46   4594
45.48   4682
45.5    4822
45.52   4882
45.54   4864
45.56   4702
45.58   4512
45.6    4408
45.62   4405
45.64   4336
45.66   4401
45.68   4398
45.7    4081
45.72   3934
45.74   3738
45.76   3626
45.78   3271
45.8    3075
45.82   3029
45.84   2816
45.86   2661
45.88   2549
45.9    2401
45.92   2352
45.94   2319
45.96   2389
45.98   2419
46      2533
46.02   2474
46.04   2478
46.06   2531
46.08   2389
46.1    2423
46.12   2548
46.14   2591
46.16   2559
46.18   2595
46.2    2725
46.22   2905
46.24   2969
46.26   3114
46.28   3201
46.3    3436
46.32   3315
46.34   3402
46.36   3521
46.38   3647
46.4    3656
46.42   3667
46.44   3613
46.46   3371
46.48   3079
46.5    2956
46.52   2764
46.54   2778
46.56   2707
46.58   2612
46.6    2501
46.62   2589
46.64   2641
46.66   2782
46.68   2998
46.7    3034
46.72   3380
46.74   3581
46.76   3690
46.78   3825
46.8    3716
46.82   3603
46.84   3567
46.86   3583
46.88   3624
46.9    3536
46.92   3450
46.94   3292
46.96   3043
46.98   2874
47      2641
47.02   2363
47.04   2230
47.06   2117
47.08   2068
47.1    1970
47.12   1893
47.14   1827
47.16   1800
47.18   1791
47.2    1862
47.22   1929
47.24   2023
47.26   2169
47.28   2199
47.3    2271
47.32   2375
47.34   2566
47.36   2753
47.38   2805
47.4    2885
47.42   2827
47.44   2698
47.46   2697
47.48   2729
47.5    2730
47.52   2721
47.54   2667
47.56   2678
47.58   2751
47.6    2675
47.62   2746
47.64   2747
47.66   2608
47.68   2568
47.7    2469
47.72   2398
47.74   2248
47.76   2272
47.78   2153
47.8    2146
47.82   2114
47.84   2175
47.86   2181
47.88   2125
47.9    2213
47.92   2172
47.94   2219
47.96   2159
47.98   2088
48      2041
48.02   2066
48.04   2055
48.06   2088
48.08   2138
48.1    2253
48.12   2274
48.14   2441
48.16   2544
48.18   2672
48.2    2860
48.22   3054
48.24   3301
48.26   3384
48.28   3638
48.3    3908
48.32   4056
48.34   4124
48.36   4247
48.38   4301
48.4    4237
48.42   4213
48.44   4192
48.46   4148
48.48   4030
48.5    4087
48.52   4118
48.54   3931
48.56   3871
48.58   3749
48.6    3543
48.62   3344
48.64   3078
48.66   3030
48.68   2987
48.7    2852
48.72   2706
48.74   2631
48.76   2437
48.78   2242
48.8    2240
48.82   2222
48.84   2166
48.86   2272
48.88   2149
48.9    2240
48.92   2285
48.94   2338
48.96   2251
48.98   2528
49      2577
49.02   2675
49.04   2655
49.06   2717
49.08   2634
49.1    2507
49.12   2525
49.14   2432
49.16   2407
49.18   2227
49.2    2136
49.22   2179
49.24   2125
49.26   2094
49.28   2123
49.3    2179
49.32   2132
49.34   2138
49.36   2259
49.38   2323
49.4    2337
49.42   2431
49.44   2474
49.46   2553
49.48   2783
49.5    2960
49.52   2997
49.54   3075
49.56   3169
49.58   2979
49.6    2868
49.62   2788
49.64   2667
49.66   2748
49.68   2621
49.7    2580
49.72   2485
49.74   2330
49.76   2234
49.78   2160
49.8    2093
49.82   2176
49.84   2243
49.86   2207
49.88   2185
49.9    2107
49.92   2016
49.94   1937
49.96   1949
49.98   2015
50      1943
50.02   2027
50.04   2030
50.06   1857
50.08   1994
50.1    2039
50.12   2021
50.14   2017
50.16   1957
50.18   1887
50.2    1973
50.22   2008
50.24   1991
50.26   2028
50.28   1959
50.3    2044
50.32   1911
50.34   2097
50.36   2043
50.38   2143
50.4    2127
50.42   2263
50.44   2347
50.46   2590
50.48   2620
50.5    2870
50.52   3123
50.54   3369
50.56   3426
50.58   3694
50.6    3681
50.62   3597
50.64   3227
50.66   3088
50.68   2774
50.7    2692
50.72   2423
50.74   2326
50.76   2177
50.78   2014
50.8    1804
50.82   1695
50.84   1634
50.86   1596
50.88   1603
50.9    1553
50.92   1648
50.94   1604
50.96   1679
50.98   1748
51      1857
51.02   1885
51.04   2017
51.06   2142
51.08   2125
51.1    2291
51.12   2222
51.14   2399
51.16   2401
51.18   2307
51.2    2297
51.22   2124
51.24   2288
51.26   2154
51.28   2242
51.3    2156
51.32   2130
51.34   2048
51.36   1980
51.38   1951
51.4    1890
51.42   1786
51.44   1795
51.46   1827
51.48   1888
51.5    1850
51.52   1844
51.54   2050
51.56   2138
51.58   2250
51.6    2359
51.62   2415
51.64   2513
51.66   2580
51.68   2547
51.7    2556
51.72   2330
51.74   2277
51.76   2260
51.78   2117
51.8    2058
51.82   1928
51.84   1907
51.86   1762
51.88   1718
51.9    1695
51.92   1712
51.94   1702
51.96   1666
51.98   1756
52      1752
52.02   1915
52.04   1982
52.06   2168
52.08   2336
52.1    2496
52.12   2711
52.14   2910
52.16   3225
52.18   3420
52.2    3511
52.22   3481
52.24   3377
52.26   3323
52.28   3244
52.3    3302
52.32   3229
52.34   3230
52.36   3222
52.38   3203
52.4    3109
52.42   3007
52.44   2980
52.46   3041
52.48   3172
52.5    3155
52.52   3117
52.54   3299
52.56   3182
52.58   3309
52.6    3358
52.62   3465
52.64   3798
52.66   3884
52.68   4063
52.7    4104
52.72   3925
52.74   3597
52.76   3447
52.78   3171
52.8    2904
52.82   2905
52.84   2695
52.86   2543
52.88   2359
52.9    2123
52.92   1969
52.94   1797
52.96   1747
52.98   1728
53      1601
53.02   1644
53.04   1649
53.06   1657
53.08   1592
53.1    1710
53.12   1635
53.14   1675
53.16   1653
53.18   1716
53.2    1786
53.22   1776
53.24   1889
53.26   1843
53.28   1866
53.3    1903
53.32   1968
53.34   1923
53.36   2012
53.38   2104
53.4    2082
53.42   2100
53.44   2045
53.46   2001
53.48   1924
53.5    1921
53.52   1782
53.54   1704
53.56   1593
53.58   1690
53.6    1551
53.62   1526
53.64   1582
53.66   1447
53.68   1452
53.7    1562
53.72   1537
53.74   1474
53.76   1532
53.78   1577
53.8    1581
53.82   1622
53.84   1604
53.86   1618
53.88   1640
53.9    1595
53.92   1608
53.94   1663
53.96   1572
53.98   1653
54      1611
54.02   1676
54.04   1796
54.06   1687
54.08   1684
54.1    1607
54.12   1628
54.14   1665
54.16   1664
54.18   1735
54.2    1738
54.22   1719
54.24   1745
54.26   1855
54.28   1872
54.3    1923
54.32   1913
54.34   1971
54.36   1919
54.38   1853
54.4    1815
54.42   1822
54.44   1831
54.46   1810
54.48   1874
54.5    1922
54.52   1975
54.54   1918
54.56   2078
54.58   2069
54.6    2088
54.62   2093
54.64   2274
54.66   2371
54.68   2474
54.7    2650
54.72   2885
54.74   2963
54.76   3057
54.78   3129
54.8    2973
54.82   2927
54.84   2853
54.86   2812
54.88   2757
54.9    2790
54.92   2647
54.94   2561
54.96   2259
54.98   2268
55      2005
55.02   1932
55.04   1942
55.06   1835
55.08   1872
55.1    1816
55.12   1657
55.14   1772
55.16   1681
55.18   1818
55.2    1865
55.22   1865
55.24   2018
55.26   2002
55.28   2046
55.3    1934
55.32   1919
55.34   1877
55.36   1865
55.38   1823
55.4    1704
55.42   1737
55.44   1710
55.46   1698
55.48   1690
55.5    1667
55.52   1671
55.54   1661
55.56   1690
55.58   1666
55.6    1666
55.62   1637
55.64   1672
55.66   1789
55.68   1820
55.7    1960
55.72   1945
55.74   1973
55.76   1948
55.78   1908
55.8    1911
55.82   1835
55.84   1719
55.86   1648
55.88   1674
55.9    1638
55.92   1659
55.94   1535
55.96   1538
55.98   1463
56      1418
56.02   1353
56.04   1354
56.06   1296
56.08   1361
56.1    1313
56.12   1313
56.14   1366
56.16   1306
56.18   1391
56.2    1447
56.22   1395
56.24   1424
56.26   1420
56.28   1311
56.3    1357
56.32   1250
56.34   1208
56.36   1273
56.38   1277
56.4    1232
56.42   1224
56.44   1185
56.46   1138
56.48   1188
56.5    1091
56.52   1134
56.54   1122
56.56   1184
56.58   1174
56.6    1179
56.62   1187
56.64   1210
56.66   1176
56.68   1243
56.7    1293
56.72   1335
56.74   1434
56.76   1466
56.78   1560
56.8    1608
56.82   1660
56.84   1664
56.86   1588
56.88   1742
56.9    1597
56.92   1592
56.94   1699
56.96   1733
56.98   1814
57      1785
57.02   1878
57.04   1926
57.06   2001
57.08   1933
57.1    2039
57.12   1975
57.14   2037
57.16   2245
57.18   2220
57.2    2397
57.22   2297
57.24   2186
57.26   2157
57.28   2051
57.3    2039
57.32   2066
57.34   2073
57.36   2065
57.38   2131
57.4    2033
57.42   2001
57.44   2005
57.46   1974
57.48   2033
57.5    1945
57.52   1942
57.54   2020
57.56   1894
57.58   1813
57.6    1740
57.62   1757
57.64   1711
57.66   1614
57.68   1666
57.7    1644
57.72   1587
57.74   1540
57.76   1493
57.78   1531
57.8    1493
57.82   1497
57.84   1542
57.86   1418
57.88   1474
57.9    1389
57.92   1383
57.94   1433
57.96   1474
57.98   1510
58      1459
58.02   1471
58.04   1458
58.06   1448
58.08   1440
58.1    1374
58.12   1397
58.14   1325
58.16   1298
58.18   1278
58.2    1335
58.22   1261
58.24   1245
58.26   1193
58.28   1104
58.3    1162
58.32   1098
58.34   1095
58.36   1076
58.38   1063
58.4    1007
58.42   1096
58.44   1131
58.46   1064
58.48   1119
58.5    1099
58.52   1079
58.54   1115
58.56   1094
58.58   1165
58.6    1204
58.62   1221
58.64   1298
58.66   1238
58.68   1231
58.7    1298
58.72   1335
58.74   1235
58.76   1284
58.78   1312
58.8    1293
58.82   1266
58.84   1312
58.86   1282
58.88   1244
58.9    1214
58.92   1156
58.94   1135
58.96   1285
58.98   1168
59      1158
59.02   1211
59.04   1197
59.06   1186
59.08   1261
59.1    1271
59.12   1265
59.14   1256
59.16   1330
59.18   1295
59.2    1310
59.22   1366
59.24   1345
59.26   1316
59.28   1368
59.3    1338
59.32   1321
59.34   1417
59.36   1386
59.38   1423
59.4    1534
59.42   1506
59.44   1596
59.46   1618
59.48   1480
59.5    1543
59.52   1544
59.54   1543
59.56   1569
59.58   1516
59.6    1493
59.62   1481
59.64   1413
59.66   1455
59.68   1411
59.7    1298
59.72   1285
59.74   1206
59.76   1193
59.78   1160
59.8    1124
59.82   1180
59.84   1143
59.86   1112
59.88   1119
59.9    1064
59.92   1138
59.94   1144
59.96   1192
59.98   1145
60      1287
60.02   1287
60.04   1234
60.06   1349
60.08   1345
60.1    1461
60.12   1474
60.14   1415
60.16   1349
60.18   1314
60.2    1288
60.22   1325
60.24   1272
60.26   1189
60.28   1270
60.3    1263
60.32   1226
60.34   1264
60.36   1160
60.38   1280
60.4    1319
60.42   1345
60.44   1262
60.46   1339
60.48   1369
60.5    1352
60.52   1539
60.54   1599
60.56   1553
60.58   1571
60.6    1564
60.62   1524
60.64   1441
60.66   1462
60.68   1389
60.7    1420
60.72   1438
60.74   1355
60.76   1410
60.78   1319
60.8    1221
60.82   1210
60.84   1185
60.86   1130
60.88   1146
60.9    1093
60.92   1158
60.94   1140
60.96   1136
60.98   1193
61      1163
61.02   1146
61.04   1212
61.06   1251
61.08   1245
61.1    1199
61.12   1241
61.14   1189
61.16   1125
61.18   1117
61.2    1084
61.22   1059
61.24   1087
61.26   1079
61.28   1020
61.3    960
61.32   1007
61.34   1032
61.36   954
61.38   1004
61.4    938
61.42   975
61.44   981
61.46   949
61.48   1003
61.5    1018
61.52   1025
61.54   1090
61.56   1084
61.58   1095
61.6    1065
61.62   1182
61.64   1144
61.66   1185
61.68   1131
61.7    1195
61.72   1224
61.74   1268
61.76   1210
61.78   1313
61.8    1291
61.82   1347
61.84   1359
61.86   1429
61.88   1391
61.9    1367
61.92   1397
61.94   1431
61.96   1369
61.98   1416
62      1340
62.02   1485
62.04   1488
62.06   1552
62.08   1514
62.1    1602
62.12   1587
62.14   1573
62.16   1529
62.18   1486
62.2    1487
62.22   1440
62.24   1382
62.26   1335
62.28   1314
62.3    1316
62.32   1310
62.34   1257
62.36   1193
62.38   1231
62.4    1141
62.42   1276
62.44   1099
62.46   1104
62.48   1050
62.5    1078
62.52   1103
62.54   1112
62.56   1173
62.58   1063
62.6    1183
62.62   1154
62.64   1174
62.66   1176
62.68   1152
62.7    1229
62.72   1137
62.74   1162
62.76   1206
62.78   1127
62.8    1229
62.82   1274
62.84   1230
62.86   1355
62.88   1353
62.9    1334
62.92   1363
62.94   1249
62.96   1294
62.98   1176
63      1103
63.02   1156
63.04   1071
63.06   1084
63.08   1072
63.1    1105
63.12   1129
63.14   1026
63.16   1062
63.18   1077
63.2    1055
63.22   1108
63.24   1064
63.26   1122
63.28   1096
63.3    1147
63.32   1199
63.34   1191
63.36   1227
63.38   1203
63.4    1293
63.42   1252
63.44   1257
63.46   1210
63.48   1203
63.5    1250
63.52   1252
63.54   1197
63.56   1218
63.58   1201
63.6    1101
63.62   1156
63.64   1164
63.66   1170
63.68   1134
63.7    1124
63.72   1174
63.74   1205
63.76   1186
63.78   1220
63.8    1235
63.82   1238
63.84   1270
63.86   1231
63.88   1168
63.9    1126
63.92   1112
63.94   1033
63.96   1103
63.98   1016
64      1076
64.02   1026
64.04   1075
64.06   1071
64.08   1019
64.1    1069
64.12   1017
64.14   1018
64.16   1000
64.18   1108
64.2    1015
64.22   1074
64.24   1037
64.26   994
64.28   1050
64.3    1056
64.32   1002
64.34   995
64.36   964
64.38   1038
64.4    1021
64.42   1026
64.44   1032
64.46   1034
64.48   1057
64.5    1014
64.52   1028
64.54   1064
64.56   1040
64.58   1113
64.6    1159
64.62   1163
64.64   1117
64.66   1172
64.68   1211
64.7    1291
64.72   1222
64.74   1337
64.76   1362
64.78   1450
64.8    1404
64.82   1327
64.84   1410
64.86   1342
64.88   1199
64.9    1277
64.92   1201
64.94   1248
64.96   1227
64.98   1231
65      1258
65.02   1214
65.04   1182
65.06   1187
65.08   1123
65.1    1194
65.12   1180
65.14   1257
65.16   1236
65.18   1279
65.2    1318
65.22   1354
65.24   1370
65.26   1346
65.28   1385
65.3    1434
65.32   1508
65.34   1504
65.36   1438
65.38   1464
65.4    1420
65.42   1423
65.44   1486
65.46   1535
65.48   1477
65.5    1517
65.52   1530
65.54   1565
65.56   1473
65.58   1451
65.6    1521
65.62   1400
65.64   1366
65.66   1290
65.68   1336
65.7    1181
65.72   1258
65.74   1302
65.76   1187
65.78   1269
65.8    1226
65.82   1254
65.84   1226
65.86   1141
65.88   1233
65.9    1102
65.92   1118
65.94   1130
65.96   1133
65.98   1185
66      1099
66.02   1135
66.04   1176
66.06   1107
66.08   1182
66.1    1201
66.12   1129
66.14   1184
66.16   1074
66.18   1072
66.2    1055
66.22   1026
66.24   1046
66.26   1055
66.28   1069
66.3    1063
66.32   1035
66.34   1003
66.36   1053
66.38   1043
66.4    1000
66.42   1081
66.44   1073
66.46   1089
66.48   1085
66.5    1142
66.52   1139
66.54   1147
66.56   1113
66.58   1094
66.6    1128
66.62   1156
66.64   1200
66.66   1175
66.68   1213
66.7    1144
66.72   1071
66.74   1170
66.76   1242
66.78   1208
66.8    1214
66.82   1191
66.84   1133
66.86   1146
66.88   1128
66.9    1165
66.92   1136
66.94   1148
66.96   1232
66.98   1117
67      1073
67.02   1240
67.04   1135
67.06   1135
67.08   1089
67.1    1181
67.12   1125
67.14   1101
67.16   1120
67.18   1139
67.2    1142
67.22   1139
67.24   1111
67.26   1133
67.28   1160
67.3    1119
67.32   1262
67.34   1252
67.36   1280
67.38   1310
67.4    1271
67.42   1311
67.44   1349
67.46   1352
67.48   1357
67.5    1357
67.52   1430
67.54   1419
67.56   1458
67.58   1392
67.6    1404
67.62   1397
67.64   1354
67.66   1303
67.68   1370
67.7    1304
67.72   1282
67.74   1269
67.76   1226
67.78   1185
67.8    1204
67.82   1174
67.84   1176
67.86   1202
67.88   1186
67.9    1124
67.92   1148
67.94   1105
67.96   1095
67.98   1128
68      1094
68.02   1171
68.04   1082
68.06   1095
68.08   1098
68.1    1080
68.12   1074
68.14   1092
68.16   996
68.18   1020
68.2    1025
68.22   1012
68.24   1041
68.26   1014
68.28   1097
68.3    1074
68.32   1124
68.34   1078
68.36   1088
68.38   1011
68.4    1074
68.42   1035
68.44   1013
68.46   1077
68.48   1083
68.5    1051
68.52   1044
68.54   1051
68.56   1059
68.58   1036
68.6    1032
68.62   1054
68.64   1046
68.66   1122
68.68   1030
68.7    1038
68.72   1040
68.74   1036
68.76   993
68.78   1023
68.8    1049
68.82   1058
68.84   1034
68.86   1086
68.88   1079
68.9    1092
68.92   1072
68.94   1080
68.96   1010
68.98   1037
69      986
69.02   926
69.04   1003
69.06   926
69.08   918
69.1    913
69.12   927
69.14   959
69.16   946
69.18   890
69.2    907
69.22   896
69.24   889
69.26   875
69.28   916
69.3    947
69.32   949
69.34   951
69.36   1016
69.38   1025
69.4    991
69.42   1027
69.44   1075
69.46   1010
69.48   1073
69.5    1090
69.52   1061
69.54   1127
69.56   1167
69.58   1173
69.6    1250
69.62   1270
69.64   1260
69.66   1260
69.68   1337
69.7    1283
69.72   1198
69.74   1240
69.76   1200
69.78   1169
69.8    1166
69.82   1213
69.84   1130
69.86   1112
69.88   1108
69.9    1089
69.92   1146
69.94   1062
69.96   1062
69.98   1047
70      1150
70.02   1099
70.04   1119
70.06   1049
70.08   1081
70.1    1122
70.12   1068
70.14   1113
70.16   1109
70.18   1103
70.2    1085
70.22   1191
70.24   1125
70.26   1170
70.28   1084
70.3    1143
70.32   1162
70.34   1116
70.36   1188
70.38   1207
70.4    1194
70.42   1170
70.44   1278
70.46   1265
70.48   1303
70.5    1298
70.52   1306
70.54   1271
70.56   1290
70.58   1237
70.6    1295
70.62   1362
70.64   1242
70.66   1251
70.68   1227
70.7    1222
70.72   1287
70.74   1201
70.76   1193
70.78   1272
70.8    1252
70.82   1272
70.84   1268
70.86   1256
70.88   1254
70.9    1255
70.92   1335
70.94   1318
70.96   1269
70.98   1358
71      1272
71.02   1319
71.04   1243
71.06   1269
71.08   1283
71.1    1259
71.12   1223
71.14   1183
71.16   1151
71.18   1087
71.2    1136
71.22   1120
71.24   1157
71.26   1178
71.28   1107
71.3    1131
71.32   1112
71.34   1081
71.36   1119
71.38   1101
71.4    1021
71.42   1089
71.44   1141
71.46   1148
71.48   1090
71.5    1069
71.52   1103
71.54   1083
71.56   1032
71.58   1066
71.6    1082
71.62   1037
71.64   997
71.66   1032
71.68   1029
71.7    1039
71.72   1086
71.74   1093
71.76   1043
71.78   1032
71.8    1036
71.82   1079
71.84   999
71.86   1014
71.88   1019
71.9    994
71.92   982
71.94   990
71.96   1008
71.98   1048
72      1060
72.02   1078
72.04   1073
72.06   1030
72.08   1086
72.1    1145
72.12   1109
72.14   1054
72.16   1150
72.18   1152
72.2    1198
72.22   1198
72.24   1215
72.26   1205
72.28   1221
72.3    1264
72.32   1258
72.34   1283
72.36   1322
72.38   1286
72.4    1303
72.42   1230
72.44   1226
72.46   1249
72.48   1133
72.5    1175
72.52   1152
72.54   1144
72.56   1112
72.58   1131
72.6    1120
72.62   1183
72.64   1158
72.66   1096
72.68   1023
72.7    1140
72.72   1125
72.74   1137
72.76   1097
72.78   1068
72.8    1076
72.82   1010
72.84   1005
72.86   980
72.88   935
72.9    981
72.92   964
72.94   946
72.96   942
72.98   941
73      868
73.02   938
73.04   840
73.06   908
73.08   981
73.1    933
73.12   888
73.14   939
73.16   940
73.18   929
73.2    890
73.22   874
73.24   888
73.26   889
73.28   893
73.3    890
73.32   876
73.34   903
73.36   915
73.38   920
73.4    928
73.42   949
73.44   932
73.46   980
73.48   979
73.5    926
73.52   921
73.54   927
73.56   915
73.58   961
73.6    975
73.62   939
73.64   958
73.66   967
73.68   1022
73.7    924
73.72   986
73.74   978
73.76   976
73.78   1039
73.8    1030
73.82   1039
73.84   1143
73.86   1069
73.88   1101
73.9    1084
73.92   1115
73.94   1141
73.96   1079
73.98   1082
74      1053
74.02   1030
74.04   1041
74.06   1047
74.08   1055
74.1    1118
74.12   1068
74.14   1093
74.16   1083
74.18   1120
74.2    1144
74.22   1069
74.24   1133
74.26   1178
74.28   1139
74.3    1159
74.32   1181
74.34   1251
74.36   1257
74.38   1282
74.4    1359
74.42   1374
74.44   1371
74.46   1344
74.48   1361
74.5    1386
74.52   1389
74.54   1389
74.56   1419
74.58   1361
74.6    1325
74.62   1372
74.64   1282
74.66   1370
74.68   1327
74.7    1286
74.72   1276
74.74   1334
74.76   1152
74.78   1211
74.8    1211
74.82   1166
74.84   1140
74.86   1088
74.88   1101
74.9    1069
74.92   1165
74.94   1059
74.96   1086
74.98   1123
75      1036
75.02   1145
75.04   1171
75.06   1134
75.08   1142
75.1    1124
75.12   1148
75.14   1154
75.16   1162
75.18   1243
75.2    1175
75.22   1268
75.24   1258
75.26   1289
75.28   1239
75.3    1273
75.32   1268
75.34   1286
75.36   1286
75.38   1274
75.4    1274
75.42   1268
75.44   1234
75.46   1184
75.48   1201
75.5    1168
75.52   1150
75.54   1123
75.56   1139
75.58   1187
75.6    1160
75.62   1229
75.64   1202
75.66   1233
75.68   1131
75.7    1167
75.72   1143
75.74   1114
75.76   1031
75.78   1014
75.8    1023
75.82   1020
75.84   1059
75.86   1038
75.88   1074
75.9    1015
75.92   1033
75.94   1033
75.96   1017
75.98   978
76      966
76.02   1006
76.04   964
76.06   915
76.08   1031
76.1    938
76.12   980
76.14   963
76.16   975
76.18   945
76.2    986
76.22   996
76.24   941
76.26   933
76.28   995
76.3    938
76.32   991
76.34   999
76.36   1021
76.38   975
76.4    1061
76.42   987
76.44   1036
76.46   1027
76.48   1125
76.5    1090
76.52   1107
76.54   1191
76.56   1139
76.58   1106
76.6    1166
76.62   1140
76.64   1184
76.66   1135
76.68   1107
76.7    1043
76.72   1115
76.74   1096
76.76   1013
76.78   997
76.8    1013
76.82   973
76.84   1039
76.86   971
76.88   1058
76.9    1019
76.92   1021
76.94   985
76.96   979
76.98   883
77      970
77.02   920
77.04   943
77.06   977
77.08   928
77.1    1000
77.12   1041
77.14   992
77.16   1063
77.18   1093
77.2    1094
77.22   979
77.24   1088
77.26   1068
77.28   1100
77.3    1137
77.32   1140
77.34   1153
77.36   1103
77.38   1161
77.4    1107
77.42   1170
77.44   1173
77.46   1134
77.48   1120
77.5    1081
77.52   1111
77.54   1092
77.56   1019
77.58   1032
77.6    1071
77.62   1118
77.64   1071
77.66   1029
77.68   1019
77.7    1013
77.72   961
77.74   978
77.76   1029
77.78   1020
77.8    963
77.82   957
77.84   971
77.86   1053
77.88   990
77.9    993
77.92   954
77.94   969
77.96   985
77.98   953
78      913
78.02   921
78.04   912
78.06   943
78.08   966
78.1    929
78.12   928
78.14   892
78.16   849
78.18   934
78.2    980
78.22   975
78.24   979
78.26   897
78.28   1009
78.3    1045
78.32   986
78.34   994
78.36   1031
78.38   977
78.4    1002
78.42   1100
78.44   1045
78.46   1087
78.48   1153
78.5    1197
78.52   1181
78.54   1230
78.56   1296
78.58   1304
78.6    1314
78.62   1415
78.64   1376
78.66   1398
78.68   1432
78.7    1439
78.72   1340
78.74   1405
78.76   1379
78.78   1355
78.8    1339
78.82   1384
78.84   1320
78.86   1274
78.88   1278
78.9    1355
78.92   1267
78.94   1226
78.96   1206
78.98   1194
79      1133
79.02   1125
79.04   1177
79.06   1106
79.08   1132
79.1    1173
79.12   1061
79.14   1196
79.16   1146
79.18   1160
79.2    1068
79.22   1159
79.24   1111
79.26   1093
79.28   1075
79.3    1076
79.32   1061
79.34   997
79.36   995
79.38   1043
79.4    971
79.42   968
79.44   984
79.46   969
79.48   930
79.5    950
79.52   972
79.54   901
79.56   943
79.58   948
79.6    907
79.62   925
79.64   888
79.66   945
79.68   925
79.7    1042
79.72   931
79.74   1026
79.76   1030
79.78   1070
79.8    1093
79.82   1128
79.84   1067
79.86   1119
79.88   1067
79.9    1168
79.92   1192
79.94   1132
79.96   1159
79.98   1196
80      1175
80.02   1151
80.04   1184
80.06   1166
80.08   1185
80.1    1165
80.12   1169
80.14   1113
80.16   1139
80.18   1126
80.2    1119
80.22   1167
80.24   1123
80.26   1102
80.28   1140
80.3    1072
80.32   1040
80.34   1039
80.36   1059
80.38   1009
80.4    947
80.42   958
80.44   977
80.46   973
80.48   980
80.5    927
80.52   958
80.54   905
80.56   967
80.58   927
80.6    938
80.62   951
80.64   957
80.66   902
80.68   891
80.7    934
80.72   985
80.74   948
80.76   855
80.78   986
80.8    953
80.82   950
80.84   906
80.86   978
80.88   916
80.9    952
80.92   966
80.94   932
80.96   982
80.98   1047
81      1042
81.02   1043
81.04   1016
81.06   1058
81.08   1008
81.1    1054
81.12   1121
81.14   1104
81.16   1076
81.18   1107
81.2    1033
81.22   1063
81.24   1056
81.26   1080
81.28   1104
81.3    1089
81.32   1146
81.34   1063
81.36   1091
81.38   1096
81.4    1130
81.42   1176
81.44   1044
81.46   1113
81.48   1144
81.5    1141
81.52   1134
81.54   1089
81.56   1105
81.58   1101
81.6    1103
81.62   1102
81.64   1104
81.66   1093
81.68   1039
81.7    1125
81.72   1100
81.74   1065
81.76   1068
81.78   1039
81.8    1000
81.82   1031
81.84   1049
81.86   992
81.88   995
81.9    967
81.92   944
81.94   970
81.96   954
81.98   955
82      983
82.02   965
82.04   1022
82.06   959
82.08   957
82.1    1020
82.12   947
82.14   982
82.16   967
82.18   1041
82.2    985
82.22   965
82.24   998
82.26   979
82.28   966
82.3    983
82.32   1014
82.34   1005
82.36   1022
82.38   1014
82.4    991
82.42   1035
82.44   1045
82.46   1006
82.48   1034
82.5    1070
82.52   1037
82.54   1033
82.56   1102
82.58   1049
82.6    1050
82.62   1079
82.64   1046
82.66   1093
82.68   1092
82.7    1145
82.72   1203
82.74   1119
82.76   1230
82.78   1192
82.8    1252
82.82   1236
82.84   1314
82.86   1313
82.88   1343
82.9    1282
82.92   1272
82.94   1263
82.96   1193
82.98   1208
83      1160
83.02   1124
83.04   1207
83.06   1137
83.08   1149
83.1    1212
83.12   1167
83.14   1075
83.16   1087
83.18   1039
83.2    1059
83.22   969
83.24   1007
83.26   1004
83.28   1044
83.3    984
83.32   991
83.34   953
83.36   972
83.38   958
83.4    1008
83.42   971
83.44   1001
83.46   1045
83.48   1045
83.5    1015
83.52   1001
83.54   1020
83.56   1018
83.58   1020
83.6    1052
83.62   1072
83.64   1041
83.66   1024
83.68   1052
83.7    1061
83.72   1021
83.74   1021
83.76   1046
83.78   973
83.8    1040
83.82   1027
83.84   1054
83.86   1027
83.88   1006
83.9    1074
83.92   1023
83.94   1016
83.96   1007
83.98   992
84      1033
84.02   1023
84.04   1093
84.06   1079
84.08   1046
84.1    1007
84.12   942
84.14   966
84.16   1053
84.18   977
84.2    1022
84.22   1037
84.24   960
84.26   1017
84.28   1024
84.3    1071
84.32   1057
84.34   1053
84.36   1065
84.38   1006
84.4    995
84.42   998
84.44   1052
84.46   996
84.48   983
84.5    991
84.52   961
84.54   944
84.56   954
84.58   976
84.6    1035
84.62   941
84.64   990
84.66   960
84.68   994
84.7    1024
84.72   967
84.74   957
84.76   983
84.78   965
84.8    988
84.82   973
84.84   990
84.86   964
84.88   951
84.9    969
84.92   943
84.94   952
84.96   983
84.98   1026
85      1062
85.02   925
85.04   1032
85.06   1040
85.08   1120
85.1    1093
85.12   1086
85.14   1047
85.16   997
85.18   1051
85.2    1003
85.22   1068
85.24   1095
85.26   1021
85.28   1026
85.3    1050
85.32   1051
85.34   965
85.36   978
85.38   1000
85.4    998
85.42   938
85.44   985
85.46   876
85.48   1000
85.5    954
85.52   992
85.54   930
85.56   943
85.58   930
85.6    917
85.62   929
85.64   971
85.66   994
85.68   956
85.7    980
85.72   963
85.74   952
85.76   968
85.78   974
85.8    1008
85.82   964
85.84   960
85.86   974
85.88   991
85.9    946
85.92   944
85.94   949
85.96   941
85.98   1014
86      978
86.02   954
86.04   983
86.06   977
86.08   991
86.1    949
86.12   914
86.14   986
86.16   911
86.18   925
86.2    966
86.22   970
86.24   916
86.26   943
86.28   974
86.3    915
86.32   906
86.34   936
86.36   913
86.38   983
86.4    973
86.42   927
86.44   932
86.46   975
86.48   930
86.5    958
86.52   884
86.54   893
86.56   898
86.58   894
86.6    945
86.62   886
86.64   878
86.66   899
86.68   878
86.7    890
86.72   799
86.74   875
86.76   893
86.78   901
86.8    897
86.82   934
86.84   890
86.86   878
86.88   944
86.9    909
86.92   958
86.94   916
86.96   907
86.98   905
87      894
87.02   890
87.04   861
87.06   963
87.08   846
87.1    881
87.12   840
87.14   894
87.16   918
87.18   854
87.2    879
87.22   881
87.24   875
87.26   883
87.28   883
87.3    794
87.32   838
87.34   827
87.36   848
87.38   846
87.4    806
87.42   808
87.44   836
87.46   858
87.48   762
87.5    827
87.52   851
87.54   802
87.56   785
87.58   831
87.6    817
87.62   822
87.64   797
87.66   826
87.68   797
87.7    784
87.72   836
87.74   799
87.76   761
87.78   807
87.8    820
87.82   881
87.84   802
87.86   759
87.88   846
87.9    807
87.92   820
87.94   802
87.96   786
87.98   837
88      828
88.02   801
88.04   818
88.06   870
88.08   768
88.1    826
88.12   814
88.14   776
88.16   817
88.18   830
88.2    776
88.22   842
88.24   846
88.26   781
88.28   879
88.3    840
88.32   924
88.34   832
88.36   913
88.38   862
88.4    854
88.42   918
88.44   919
88.46   852
88.48   808
88.5    902
88.52   894
88.54   882
88.56   874
88.58   886
88.6    869
88.62   856
88.64   873
88.66   885
88.68   899
88.7    863
88.72   882
88.74   883
88.76   844
88.78   869
88.8    870
88.82   892
88.84   885
88.86   883
88.88   868
88.9    877
88.92   943
88.94   866
88.96   941
88.98   940
89      945
89.02   923
89.04   960
89.06   910
89.08   936
89.1    951
89.12   875
89.14   921
89.16   855
89.18   902
89.2    896
89.22   931
89.24   892
89.26   926
89.28   848
89.3    897
89.32   923
89.34   915
89.36   898
89.38   948
89.4    888
89.42   867
89.44   821
89.46   853
89.48   883
89.5    903
89.52   825
89.54   913
89.56   857
89.58   824
89.6    851
89.62   883
89.64   878
89.66   860
89.68   860
89.7    830
89.72   878
89.74   829
89.76   859
89.78   830
89.8    841
89.82   847
89.84   846
89.86   863
89.88   878
89.9    868
89.92   884
89.94   848
89.96   808
89.98   876
90      825
90.02   816
90.04   773
90.06   813
90.08   802
90.1    863
90.12   825
90.14   759
90.16   771
90.18   815
90.2    777
90.22   826
90.24   766
90.26   735
90.28   795
90.3    798
90.32   769
90.34   799
90.36   764
90.38   769
90.4    759
90.42   788
90.44   768
90.46   726
90.48   759
90.5    742
90.52   714
90.54   800
90.56   770
90.58   793
90.6    792
90.62   813
90.64   768
90.66   777
90.68   837
90.7    791
90.72   813
90.74   802
90.76   819
90.78   725
90.8    794
90.82   798
90.84   785
90.86   809
90.88   769
90.9    801
90.92   733
90.94   772
90.96   739
90.98   749
91      724
91.02   759
91.04   747
91.06   736
91.08   744
91.1    721
91.12   716
91.14   728
91.16   777
91.18   737
91.2    748
91.22   734
91.24   760
91.26   689
91.28   709
91.3    746
91.32   752
91.34   715
91.36   738
91.38   708
91.4    728
91.42   711
91.44   735
91.46   675
91.48   706
91.5    747
91.52   674
91.54   690
91.56   782
91.58   742
91.6    753
91.62   764
91.64   765
91.66   809
91.68   772
91.7    741
91.72   790
91.74   792
91.76   730
91.78   783
91.8    678
91.82   774
91.84   742
91.86   717
91.88   684
91.9    715
91.92   740
91.94   644
91.96   733
91.98   728
92      786
92.02   839
92.04   730
92.06   733
92.08   739
92.1    730
92.12   698
92.14   731
92.16   751
92.18   729
92.2    773
92.22   743
92.24   728
92.26   794
92.28   757
92.3    756
92.32   718
92.34   709
92.36   777
92.38   788
92.4    751
92.42   764
92.44   738
92.46   795
92.48   730
92.5    794
92.52   779
92.54   791
92.56   781
92.58   779
92.6    765
92.62   799
92.64   811
92.66   798
92.68   821
92.7    849
92.72   862
92.74   826
92.76   873
92.78   827
92.8    817
92.82   774
92.84   754
92.86   801
92.88   798
92.9    769
92.92   837
92.94   833
92.96   852
92.98   829
93      795
93.02   835
93.04   812
93.06   871
93.08   811
93.1    827
93.12   806
93.14   790
93.16   808
93.18   826
93.2    764
93.22   820
93.24   833
93.26   774
93.28   776
93.3    804
93.32   800
93.34   859
93.36   780
93.38   833
93.4    817
93.42   788
93.44   777
93.46   816
93.48   754
93.5    724
93.52   709
93.54   761
93.56   738
93.58   755
93.6    765
93.62   727
93.64   724
93.66   743
93.68   764
93.7    763
93.72   725
93.74   728
93.76   752
93.78   763
93.8    713
93.82   677
93.84   708
93.86   728
93.88   685
93.9    707
93.92   678
93.94   712
93.96   726
93.98   733
94      708
94.02   721
94.04   695
94.06   730
94.08   714
94.1    732
94.12   722
94.14   779
94.16   756
94.18   785
94.2    766
94.22   779
94.24   705
94.26   790
94.28   786
94.3    759
94.32   770
94.34   807
94.36   765
94.38   781
94.4    781
94.42   723
94.44   726
94.46   745
94.48   740
94.5    765
94.52   751
94.54   789
94.56   744
94.58   744
94.6    756
94.62   805
94.64   799
94.66   774
94.68   741
94.7    732
94.72   730
94.74   690
94.76   712
94.78   706
94.8    705
94.82   686
94.84   669
94.86   744
94.88   718
94.9    740
94.92   730
94.94   690
94.96   748
94.98   744
95      746
95.02   688
95.04   724
95.06   714
95.08   642
95.1    695
95.12   701
95.14   689
95.16   717
95.18   698
95.2    722
95.22   762
95.24   719
95.26   710
95.28   743
95.3    721
95.32   736
95.34   679
95.36   744
95.38   729
95.4    729
95.42   718
95.44   722
95.46   708
95.48   671
95.5    708
95.52   758
95.54   764
95.56   691
95.58   695
95.6    721
95.62   751
95.64   714
95.66   728
95.68   729
95.7    750
95.72   751
95.74   849
95.76   720
95.78   796
95.8    793
95.82   789
95.84   776
95.86   821
95.88   819
95.9    816
95.92   757
95.94   843
95.96   785
95.98   781
96      847
96.02   777
96.04   788
96.06   760
96.08   827
96.1    833
96.12   784
96.14   794
96.16   804
96.18   780
96.2    813
96.22   794
96.24   791
96.26   736
96.28   784
96.3    715
96.32   744
96.34   792
96.36   734
96.38   802
96.4    756
96.42   763
96.44   775
96.46   799
96.48   758
96.5    798
96.52   805
96.54   809
96.56   761
96.58   779
96.6    747
96.62   737
96.64   739
96.66   736
96.68   720
96.7    745
96.72   752
96.74   743
96.76   754
96.78   753
96.8    765
96.82   721
96.84   741
96.86   727
96.88   723
96.9    734
96.92   752
96.94   702
96.96   690
96.98   698
97      785
97.02   663
97.04   716
97.06   725
97.08   682
97.1    681
97.12   727
97.14   690
97.16   719
97.18   684
97.2    728
97.22   717
97.24   744
97.26   733
97.28   712
97.3    714
97.32   769
97.34   663
97.36   763
97.38   712
97.4    733
97.42   757
97.44   705
97.46   725
97.48   693
97.5    776
97.52   711
97.54   696
97.56   688
97.58   704
97.6    684
97.62   702
97.64   717
97.66   656
97.68   692
97.7    753
97.72   698
97.74   710
97.76   706
97.78   722
97.8    720
97.82   668
97.84   753
97.86   684
97.88   697
97.9    692
97.92   730
97.94   721
97.96   665
97.98   647
98      727
98.02   705
98.04   704
98.06   708
98.08   699
98.1    690
98.12   691
98.14   663
98.16   658
98.18   645
98.2    695
98.22   662
98.24   663
98.26   685
98.28   731
98.3    732
98.32   665
98.34   668
98.36   667
98.38   623
98.4    688
98.42   604
98.44   686
98.46   657
98.48   726
98.5    716
98.52   639
98.54   613
98.56   618
98.58   668
98.6    648
98.62   699
98.64   681
98.66   659
98.68   656
98.7    648
98.72   660
98.74   687
98.76   617
98.78   668
98.8    613
98.82   678
98.84   661
98.86   621
98.88   680
98.9    646
98.92   654
98.94   661
98.96   644
98.98   642
99      658
99.02   701
99.04   642
99.06   667
99.08   648
99.1    640
99.12   731
99.14   667
99.16   662
99.18   613
99.2    641
99.22   619
99.24   675
99.26   659
99.28   619
99.3    695
99.32   626
99.34   637
99.36   634
99.38   631
99.4    626
99.42   651
99.44   662
99.46   654
99.48   654
99.5    688
99.52   667
99.54   627
99.56   647
99.58   658
99.6    638
99.62   652
99.64   647
99.66   634
99.68   607
99.7    655
99.72   567
99.74   621
99.76   600
99.78   628
99.8    629
99.82   626
99.84   613
99.86   652
99.88   631
99.9    641
99.92   671
99.94   639
99.96   595
99.98   622
100     650
