10.06   1256
10.08   1254
10.1    1314
10.12   1157
10.14   1194
10.16   1206
10.18   1220
10.2    1245
10.22   1183
10.24   1178
10.26   1177
10.28   1263
10.3    1224
10.32   1187
10.34   1279
10.36   1163
10.38   1211
10.4    1180
10.42   1198
10.44   1256
10.46   1164
10.48   1158
10.5    1236
10.52   1112
10.54   1200
10.56   1175
10.58   1178
10.6    1168
10.62   1193
10.64   1209
10.66   1159
10.68   1162
10.7    1149
10.72   1213
10.74   1210
10.76   1199
10.78   1183
10.8    1183
10.82   1167
10.84   1223
10.86   1209
10.88   1195
10.9    1218
10.92   1276
10.94   1155
10.96   1222
10.98   1248
11      1211
11.02   1278
11.04   1222
11.06   1350
11.08   1272
11.1    1350
11.12   1291
11.14   1318
11.16   1340
11.18   1383
11.2    1365
11.22   1531
11.24   1540
11.26   1516
11.28   1443
11.3    1421
11.32   1444
11.34   1462
11.36   1398
11.38   1456
11.4    1503
11.42   1572
11.44   1674
11.46   1775
11.48   1790
11.5    1837
11.52   1812
11.54   2044
11.56   2240
11.58   2437
11.6    2600
11.62   2725
11.64   3140
11.66   3544
11.68   4179
11.7    4528
11.72   4802
11.74   4806
11.76   5164
11.78   6329
11.8    7906
11.82   8694
11.84   9476
11.86   10522
11.88   12028
11.9    15140
11.92   18897
11.94   23590
11.96   29082
11.98   37341
12      55362
12.02   88405
12.04   107978
12.06   92846
12.08   58500
12.1    26599
12.12   9897
12.14   4427
12.16   2811
12.18   2282
12.2    2070
12.22   1868
12.24   1793
12.26   1732
12.28   1585
12.3    1511
12.32   1685
12.34   1635
12.36   1633
12.38   1653
12.4    1605
12.42   1819
12.44   1813
12.46   1891
12.48   1977
12.5    2099
12.52   2329
12.54   2476
12.56   2719
12.58   2817
12.6    2890
12.62   3089
12.64   3316
12.66   3543
12.68   3850
12.7    3965
12.72   4420
12.74   4927
12.76   5537
12.78   5984
12.8    6409
12.82   7646
12.84   8595
12.86   9818
12.88   11000
12.9    12462
12.92   14378
12.94   17108
12.96   20764
12.98   26015
13      31670
13.02   40418
13.04   48573
13.06   51013
13.08   43187
13.1    30895
13.12   19274
13.14   11216
13.16   7478
13.18   5336
13.2    4468
13.22   3779
13.24   3304
13.26   3105
13.28   2806
13.3    2579
13.32   2355
13.34   2205
13.36   2167
13.38   2045
13.4    1982
13.42   1943
13.44   1934
13.46   1795
13.48   1739
13.5    1676
13.52   1615
13.54   1676
13.56   1585
13.58   1580
13.6    1621
13.62   1532
13.64   1526
13.66   1464
13.68   1492
13.7    1469
13.72   1485
13.74   1453
13.76   1456
13.78   1444
13.8    1407
13.82   1383
13.84   1381
13.86   1335
13.88   1360
13.9    1348
13.92   1349
13.94   1361
13.96   1352
13.98   1361
14      1319
14.02   1317
14.04   1317
14.06   1331
14.08   1326
14.1    1242
14.12   1299
14.14   1260
14.16   1263
14.18   1309
14.2    1301
14.22   1249
14.24   1256
14.26   1274
14.28   1298
14.3    1312
14.32   1241
14.34   1329
14.36   1233
14.38   1309
14.4    1332
14.42   1270
14.44   1345
14.46   1419
14.48   1393
14.5    1449
14.52   1457
14.54   1458
14.56   1539
14.58   1516
14.6    1591
14.62   1681
14.64   1735
14.66   1852
14.68   1901
14.7    2033
14.72   2182
14.74   2341
14.76   2655
14.78   2961
14.8    3351
14.82   3648
14.84   4010
14.86   4307
14.88   4981
14.9    5631
14.92   6221
14.94   7315
14.96   8904
14.98   10653
15      13241
15.02   16750
15.04   21224
15.06   26646
15.08   32405
15.1    39382
15.12   50006
15.14   72332
15.16   97658
15.18   100001
15.2    79825
15.22   50367
15.24   24776
15.26   10091
15.28   4657
15.3    3015
15.32   2446
15.34   2177
15.36   1956
15.38   1789
15.4    1655
15.42   1537
15.44   1546
15.46   1481
15.48   1335
15.5    1351
15.52   1331
15.54   1301
15.56   1391
15.58   1270
15.6    1269
15.62   1377
15.64   1275
15.66   1411
15.68   1441
15.7    1466
15.72   1591
15.74   1649
15.76   1649
15.78   1760
15.8    1802
15.82   2026
15.84   2313
15.86   2478
15.88   2678
15.9    3081
15.92   3516
15.94   4140
15.96   4707
15.98   5333
16      5440
16.02   4771
16.04   3948
16.06   3067
16.08   2410
16.1    1957
16.12   1772
16.14   1506
16.16   1564
16.18   1413
16.2    1348
16.22   1359
16.24   1308
16.26   1272
16.28   1312
16.3    1200
16.32   1218
16.34   1241
16.36   1195
16.38   1245
16.4    1179
16.42   1168
16.44   1194
16.46   1176
16.48   1168
16.5    1153
16.52   1087
16.54   1145
16.56   1109
16.58   1172
16.6    1154
16.62   1145
16.64   1126
16.66   1157
16.68   1095
16.7    1043
16.72   1075
16.74   1077
16.76   1045
16.78   1125
16.8    1069
16.82   1140
16.84   1119
16.86   1111
16.88   1105
16.9    1121
16.92   1176
16.94   1147
16.96   1086
16.98   1115
17      1119
17.02   1110
17.04   1179
17.06   1097
17.08   1150
17.1    1185
17.12   1169
17.14   1205
17.16   1250
17.18   1268
17.2    1318
17.22   1371
17.24   1347
17.26   1356
17.28   1477
17.3    1490
17.32   1544
17.34   1682
17.36   1780
17.38   1888
17.4    1970
17.42   2158
17.44   2441
17.46   2572
17.48   2926
17.5    3368
17.52   3833
17.54   4351
17.56   4820
17.58   5680
17.6    6624
17.62   7910
17.64   9495
17.66   11260
17.68   12936
17.7    13007
17.72   11252
17.74   8873
17.76   6489
17.78   4572
17.8    3508
17.82   2672
17.84   2431
17.86   2096
17.88   1869
17.9    1833
17.92   1829
17.94   1827
17.96   1771
17.98   1855
18      1917
18.02   1989
18.04   2285
18.06   2622
18.08   3056
18.1    3421
18.12   3919
18.14   4389
18.16   5108
18.18   6157
18.2    7226
18.22   8715
18.24   10766
18.26   14120
18.28   18734
18.3    24288
18.32   32347
18.34   43836
18.36   58153
18.38   77098
18.4    110782
18.42   171162
18.44   241981
18.46   254112
18.48   205348
18.5    147575
18.52   87047
18.54   38503
18.56   14959
18.58   7213
18.6    4825
18.62   3901
18.64   3155
18.66   2767
18.68   2452
18.7    2232
18.72   2019
18.74   1797
18.76   1623
18.78   1672
18.8    1541
18.82   1460
18.84   1419
18.86   1378
18.88   1354
18.9    1257
18.92   1228
18.94   1259
18.96   1149
18.98   1165
19      1207
19.02   1102
19.04   1097
19.06   1130
19.08   1166
19.1    1091
19.12   1089
19.14   1086
19.16   1077
19.18   1045
19.2    1045
19.22   1029
19.24   1069
19.26   1026
19.28   1062
19.3    1000
19.32   1002
19.34   1044
19.36   1021
19.38   981
19.4    1001
19.42   983
19.44   1039
19.46   1005
19.48   981
19.5    964
19.52   983
19.54   939
19.56   994
19.58   930
19.6    983
19.62   946
19.64   1039
19.66   932
19.68   976
19.7    986
19.72   948
19.74   965
19.76   986
19.78   958
19.8    1008
19.82   996
19.84   947
19.86   980
19.88   947
19.9    904
19.92   941
19.94   944
19.96   954
19.98   950
20      969
20.02   984
20.04   945
20.06   905
20.08   980
20.1    989
20.12   911
20.14   909
20.16   984
20.18   991
20.2    916
20.22   953
20.24   922
20.26   988
20.28   991
20.3    973
20.32   965
20.34   920
20.36   977
20.38   916
20.4    980
20.42   944
20.44   985
20.46   979
20.48   926
20.5    953
20.52   962
20.54   911
20.56   979
20.58   969
20.6    956
20.62   890
20.64   914
20.66   982
20.68   891
20.7    967
20.72   963
20.74   986
20.76   956
20.78   930
20.8    899
20.82   977
20.84   1017
20.86   1001
20.88   953
20.9    944
20.92   956
20.94   945
20.96   941
20.98   1016
21      990
21.02   949
21.04   941
21.06   1041
21.08   966
21.1    948
21.12   976
21.14   972
21.16   940
21.18   1015
21.2    949
21.22   1008
21.24   1031
21.26   987
21.28   1040
21.3    1042
21.32   1006
21.34   1012
21.36   1033
21.38   985
21.4    1038
21.42   1065
21.44   1081
21.46   1096
21.48   1006
21.5    1094
21.52   1126
21.54   1068
21.56   1086
21.58   1082
21.6    1120
21.62   1155
21.64   1222
21.66   1218
21.68   1182
21.7    1284
21.72   1392
21.74   1376
21.76   1451
21.78   1618
21.8    1745
21.82   1840
21.84   2167
21.86   2353
21.88   2665
21.9    3212
21.92   3635
21.94   4374
21.96   5528
21.98   7246
22      9144
22.02   11928
22.04   16059
22.06   22317
22.08   26898
22.1    26854
22.12   25736
22.14   25571
22.16   24591
22.18   21080
22.2    17484
22.22   14016
22.24   10813
22.26   7890
22.28   5826
22.3    4408
22.32   3594
22.34   3145
22.36   2987
22.38   2854
22.4    2915
22.42   2798
22.44   2975
22.46   3112
22.48   3149
22.5    3477
22.52   3838
22.54   4541
22.56   4981
22.58   6072
22.6    7183
22.62   8708
22.64   10073
22.66   10467
22.68   9775
22.7    8390
22.72   7162
22.74   5495
22.76   4240
22.78   3143
22.8    2606
22.82   2204
22.84   2011
22.86   1811
22.88   1656
22.9    1594
22.92   1532
22.94   1503
22.96   1406
22.98   1484
23      1375
23.02   1368
23.04   1263
23.06   1249
23.08   1301
23.1    1257
23.12   1202
23.14   1221
23.16   1255
23.18   1207
23.2    1264
23.22   1276
23.24   1243
23.26   1185
23.28   1219
23.3    1177
23.32   1202
23.34   1209
23.36   1250
23.38   1148
23.4    1194
23.42   1320
23.44   1224
23.46   1288
23.48   1297
23.5    1223
23.52   1242
23.54   1263
23.56   1347
23.58   1368
23.6    1388
23.62   1436
23.64   1556
23.66   1578
23.68   1723
23.7    1761
23.72   2012
23.74   2219
23.76   2477
23.78   2905
23.8    3443
23.82   4108
23.84   4922
23.86   5994
23.88   7299
23.9    8033
23.92   7943
23.94   7214
23.96   6974
23.98   6330
24      5852
24.02   6157
24.04   6871
24.06   7993
24.08   9644
24.1    12850
24.12   18046
24.14   27095
24.16   41945
24.18   57410
24.2    57176
24.22   44829
24.24   35821
24.26   28261
24.28   16995
24.3    8170
24.32   4098
24.34   2715
24.36   2153
24.38   1901
24.4    1712
24.42   1593
24.44   1462
24.46   1446
24.48   1358
24.5    1362
24.52   1339
24.54   1229
24.56   1252
24.58   1294
24.6    1225
24.62   1132
24.64   1172
24.66   1146
24.68   1123
24.7    1137
24.72   1165
24.74   1086
24.76   1125
24.78   1169
24.8    1127
24.82   1161
24.84   1139
24.86   1047
24.88   1138
24.9    1067
24.92   1120
24.94   1169
24.96   1121
24.98   1136
25      1150
25.02   1100
25.04   1198
25.06   1200
25.08   1176
25.1    1209
25.12   1230
25.14   1305
25.16   1357
25.18   1324
25.2    1377
25.22   1501
25.24   1471
25.26   1564
25.28   1628
25.3    1697
25.32   1795
25.34   1908
25.36   2041
25.38   2296
25.4    2676
25.42   3048
25.44   3462
25.46   4120
25.48   4884
25.5    5830
25.52   7129
25.54   8872
25.56   11146
25.58   14312
25.6    18460
25.62   22421
25.64   24855
25.66   24701
25.68   23059
25.7    21178
25.72   19381
25.74   17821
25.76   17226
25.78   17722
25.8    18088
25.82   17647
25.84   16021
25.86   14927
25.88   15042
25.9    15931
25.92   15729
25.94   14249
25.96   11533
25.98   9712
26      8396
26.02   6757
26.04   5394
26.06   4844
26.08   4921
26.1    5370
26.12   6290
26.14   7138
26.16   8241
26.18   9868
26.2    11766
26.22   14217
26.24   16577
26.26   17589
26.28   16282
26.3    14206
26.32   11931
26.34   9639
26.36   7163
26.38   5197
26.4    3854
26.42   2967
26.44   2471
26.46   2191
26.48   1884
26.5    1788
26.52   1598
26.54   1552
26.56   1432
26.58   1328
26.6    1349
26.62   1198
26.64   1220
26.66   1201
26.68   1182
26.7    1125
26.72   1092
26.74   1116
26.76   1086
26.78   1134
26.8    1108
26.82   1017
26.84   1087
26.86   1032
26.88   1046
26.9    1086
26.92   1106
26.94   1140
26.96   1100
26.98   1137
27      1129
27.02   1207
27.04   1328
27.06   1423
27.08   1537
27.1    1730
27.12   1912
27.14   2228
27.16   2573
27.18   3158
27.2    3925
27.22   4673
27.24   5754
27.26   6866
27.28   7742
27.3    8070
27.32   7651
27.34   7065
27.36   6249
27.38   5255
27.4    4292
27.42   3411
27.44   2975
27.46   2567
27.48   2229
27.5    1950
27.52   1935
27.54   1752
27.56   1625
27.58   1628
27.6    1572
27.62   1615
27.64   1623
27.66   1678
27.68   1667
27.7    1832
27.72   1990
27.74   2225
27.76   2425
27.78   2730
27.8    3308
27.82   3797
27.84   4419
27.86   4907
27.88   5056
27.9    4788
27.92   4238
27.94   3624
27.96   3175
27.98   2593
28      2005
28.02   1688
28.04   1509
28.06   1284
28.08   1205
28.1    1130
28.12   1110
28.14   1077
28.16   1022
28.18   868
28.2    1018
28.22   982
28.24   942
28.26   950
28.28   951
28.3    955
28.32   914
28.34   904
28.36   890
28.38   947
28.4    857
28.42   937
28.44   845
28.46   888
28.48   864
28.5    889
28.52   896
28.54   867
28.56   868
28.58   869
28.6    870
28.62   859
28.64   872
28.66   832
28.68   928
28.7    885
28.72   832
28.74   868
28.76   847
28.78   815
28.8    856
28.82   882
28.84   884
28.86   903
28.88   873
28.9    859
28.92   848
28.94   858
28.96   914
28.98   803
29      867
29.02   841
29.04   854
29.06   883
29.08   897
29.1    896
29.12   879
29.14   856
29.16   868
29.18   841
29.2    916
29.22   877
29.24   875
29.26   858
29.28   862
29.3    843
29.32   846
29.34   914
29.36   862
29.38   873
29.4    906
29.42   853
29.44   906
29.46   881
29.48   893
29.5    896
29.52   896
29.54   873
29.56   860
29.58   871
29.6    869
29.62   941
29.64   898
29.66   899
29.68   928
29.7    912
29.72   903
29.74   910
29.76   889
29.78   945
29.8    908
29.82   895
29.84   959
29.86   917
29.88   966
29.9    937
29.92   862
29.94   980
29.96   884
29.98   953
30      967
30.02   999
30.04   1014
30.06   1007
30.08   1041
30.1    1031
30.12   1121
30.14   1195
30.16   1197
30.18   1339
30.2    1427
30.22   1598
30.24   1881
30.26   2253
30.28   2781
30.3    3432
30.32   4487
30.34   6354
30.36   9127
30.38   12506
30.4    14045
30.42   13441
30.44   13050
30.46   14861
30.48   17004
30.5    20942
30.52   27641
30.54   40766
30.56   57441
30.58   68005
30.6    63843
30.62   51692
30.64   43299
30.66   38474
30.68   31047
30.7    20283
30.72   11679
30.74   7200
30.76   5207
30.78   4384
30.8    4024
30.82   3400
30.84   3013
30.86   2702
30.88   2468
30.9    2248
30.92   2166
30.94   1914
30.96   1668
30.98   1594
31      1562
31.02   1433
31.04   1464
31.06   1337
31.08   1346
31.1    1365
31.12   1340
31.14   1279
31.16   1220
31.18   1250
31.2    1302
31.22   1272
31.24   1340
31.26   1303
31.28   1362
31.3    1377
31.32   1334
31.34   1429
31.36   1454
31.38   1510
31.4    1563
31.42   1617
31.44   1740
31.46   1831
31.48   2015
31.5    2125
31.52   2287
31.54   2673
31.56   3065
31.58   3641
31.6    4097
31.62   4986
31.64   5877
31.66   7509
31.68   9417
31.7    11900
31.72   14581
31.74   17173
31.76   19330
31.78   19109
31.8    18226
31.82   16983
31.84   15510
31.86   13779
31.88   11793
31.9    9927
31.92   8762
31.94   8399
31.96   7699
31.98   7310
32      7131
32.02   6819
32.04   7154
32.06   7585
32.08   8198
32.1    8639
32.12   8991
32.14   9155
32.16   9405
32.18   10411
32.2    11513
32.22   12840
32.24   13881
32.26   15326
32.28   14989
32.3    14157
32.32   12561
32.34   10870
32.36   9815
32.38   8037
32.4    6312
32.42   4886
32.44   4007
32.46   3287
32.48   2812
32.5    2459
32.52   2253
32.54   2061
32.56   1924
32.58   1849
32.6    1596
32.62   1584
32.64   1559
32.66   1497
32.68   1465
32.7    1438
32.72   1332
32.74   1335
32.76   1297
32.78   1236
32.8    1242
32.82   1275
32.84   1205
32.86   1190
32.88   1221
32.9    1199
32.92   1184
32.94   1135
32.96   1210
32.98   1241
33      1189
33.02   1223
33.04   1218
33.06   1262
33.08   1297
33.1    1328
33.12   1414
33.14   1439
33.16   1468
33.18   1650
33.2    1722
33.22   1945
33.24   2195
33.26   2794
33.28   3015
33.3    3370
33.32   3701
33.34   3724
33.36   3617
33.38   3441
33.4    2897
33.42   2671
33.44   2383
33.46   1943
33.48   1812
33.5    1484
33.52   1350
33.54   1273
33.56   1170
33.58   1156
33.6    1163
33.62   1058
33.64   1064
33.66   1007
33.68   1055
33.7    964
33.72   1024
33.74   1020
33.76   1036
33.78   976
33.8    988
33.82   967
33.84   952
33.86   974
33.88   994
33.9    960
33.92   933
33.94   963
33.96   943
33.98   957
34      927
34.02   970
34.04   930
34.06   893
34.08   957
34.1    946
34.12   968
34.14   923
34.16   938
34.18   971
34.2    939
34.22   937
34.24   1022
34.26   974
34.28   1029
34.3    1080
34.32   1054
34.34   1049
34.36   1084
34.38   1136
34.4    1253
34.42   1335
34.44   1417
34.46   1658
34.48   1877
34.5    2275
34.52   2578
34.54   3026
34.56   3306
34.58   3209
34.6    2959
34.62   2655
34.64   2539
34.66   2337
34.68   2036
34.7    1624
34.72   1462
34.74   1352
34.76   1186
34.78   1138
34.8    1202
34.82   1186
34.84   1094
34.86   1070
34.88   1035
34.9    1032
34.92   1055
34.94   1109
34.96   1073
34.98   1096
35      1076
35.02   1080
35.04   1184
35.06   1124
35.08   1218
35.1    1381
35.12   1473
35.14   1589
35.16   1823
35.18   2062
35.2    2419
35.22   2679
35.24   2769
35.26   2560
35.28   2221
35.3    2079
35.32   2008
35.34   1854
35.36   1544
35.38   1370
35.4    1257
35.42   1213
35.44   1161
35.46   1177
35.48   1145
35.5    1147
35.52   1147
35.54   1188
35.56   1167
35.58   1205
35.6    1300
35.62   1292
35.64   1396
35.66   1568
35.68   1640
35.7    1946
35.72   2379
35.74   2692
35.76   2980
35.78   3264
35.8    3355
35.82   3321
35.84   3200
35.86   2974
35.88   2753
35.9    2623
35.92   2488
35.94   2266
35.96   2268
35.98   2271
36      2523
36.02   2656
36.04   2761
36.06   2672
36.08   2487
36.1    2294
36.12   2073
36.14   2037
36.16   1879
36.18   1605
36.2    1521
36.22   1454
36.24   1410
36.26   1283
36.28   1267
36.3    1306
36.32   1304
36.34   1375
36.36   1382
36.38   1409
36.4    1504
36.42   1721
36.44   1807
36.46   2096
36.48   2272
36.5    2278
36.52   2377
36.54   2771
36.56   3315
36.58   4394
36.6    5816
36.62   6584
36.64   5679
36.66   4462
36.68   3832
36.7    3992
36.72   3982
36.74   3189
36.76   2340
36.78   1846
36.8    1635
36.82   1678
36.84   1592
36.86   1617
36.88   1609
36.9    1697
36.92   1916
36.94   2047
36.96   2328
36.98   2609
37      3067
37.02   3541
37.04   4394
37.06   5311
37.08   6455
37.1    7472
37.12   8323
37.14   9168
37.16   9784
37.18   9752
37.2    8851
37.22   7919
37.24   7472
37.26   7562
37.28   8094
37.3    9296
37.32   11478
37.34   15236
37.36   18909
37.38   18833
37.4    14216
37.42   10654
37.44   10006
37.46   10796
37.48   9510
37.5    6519
37.52   4015
37.54   2613
37.56   2184
37.58   1968
37.6    2060
37.62   2170
37.64   2484
37.66   2695
37.68   3198
37.7    3871
37.72   5098
37.74   7116
37.76   10376
37.78   15279
37.8    22897
37.82   29297
37.84   30410
37.86   25341
37.88   19349
37.9    17383
37.92   17477
37.94   15724
37.96   12108
37.98   7927
38      5077
38.02   3686
38.04   3182
38.06   3145
38.08   3307
38.1    3695
38.12   4177
38.14   4781
38.16   5303
38.18   5533
38.2    5258
38.22   4796
38.24   4545
38.26   4248
38.28   3972
38.3    3467
38.32   3108
38.34   2673
38.36   2348
38.38   2177
38.4    2132
38.42   2092
38.44   2199
38.46   2286
38.48   2360
38.5    2510
38.52   2743
38.54   3139
38.56   3469
38.58   3861
38.6    4271
38.62   4029
38.64   3823
38.66   3629
38.68   3391
38.7    3097
38.72   2836
38.74   2456
38.76   2145
38.78   1872
38.8    1668
38.82   1504
38.84   1409
38.86   1275
38.88   1206
38.9    1164
38.92   1115
38.94   1080
38.96   1088
38.98   1011
39      1040
39.02   996
39.04   1008
39.06   1005
39.08   1012
39.1    1042
39.12   1074
39.14   986
39.16   1010
39.18   1018
39.2    1022
39.22   1072
39.24   1139
39.26   1230
39.28   1392
39.3    1590
39.32   1916
39.34   2576
39.36   3427
39.38   4308
39.4    4521
39.42   3906
39.44   3030
39.46   2708
39.48   2880
39.5    2847
39.52   2448
39.54   1893
39.56   1588
39.58   1406
39.6    1390
39.62   1440
39.64   1593
39.66   1790
39.68   2153
39.7    2567
39.72   2627
39.74   2775
39.76   2543
39.78   2424
39.8    2288
39.82   2322
39.84   2219
39.86   2139
39.88   1986
39.9    2008
39.92   1965
39.94   2177
39.96   2228
39.98   2447
40      2733
40.02   3068
40.04   3251
40.06   3108
40.08   2853
40.1    2464
40.12   2413
40.14   2325
40.16   2091
40.18   1837
40.2    1667
40.22   1461
40.24   1327
40.26   1260
40.28   1217
40.3    1232
40.32   1189
40.34   1234
40.36   1218
40.38   1266
40.4    1375
40.42   1492
40.44   1726
40.46   1900
40.48   2107
40.5    2318
40.52   2183
40.54   1835
40.56   1764
40.58   1768
40.6    1780
40.62   1661
40.64   1606
40.66   1278
40.68   1224
40.7    1126
40.72   1172
40.74   1152
40.76   1160
40.78   1242
40.8    1230
40.82   1336
40.84   1386
40.86   1506
40.88   1606
40.9    1710
40.92   1811
40.94   1774
40.96   1892
40.98   1747
41      1714
41.02   1763
41.04   1821
41.06   1886
41.08   1998
41.1    2207
41.12   2437
41.14   2923
41.16   3563
41.18   4829
41.2    6877
41.22   10463
41.24   16041
41.26   22938
41.28   28271
41.3    29104
41.32   25549
41.34   19463
41.36   16690
41.38   16406
41.4    16651
41.42   14171
41.44   10231
41.46   6674
41.48   4321
41.5    3180
41.52   2821
41.54   2778
41.56   2984
41.58   3296
41.6    3721
41.62   4164
41.64   4698
41.66   4979
41.68   4857
41.7    4410
41.72   4205
41.74   4002
41.76   3729
41.78   3571
41.8    3362
41.82   3043
41.84   2919
41.86   2780
41.88   2700
41.9    2583
41.92   2495
41.94   2493
41.96   2534
41.98   2492
42      2583
42.02   2256
42.04   2191
42.06   1998
42.08   1886
42.1    1826
42.12   1688
42.14   1599
42.16   1443
42.18   1362
42.2    1330
42.22   1322
42.24   1161
42.26   1227
42.28   1208
42.3    1169
42.32   1276
42.34   1248
42.36   1239
42.38   1277
42.4    1272
42.42   1287
42.44   1419
42.46   1458
42.48   1593
42.5    1680
42.52   1879
42.54   1830
42.56   1990
42.58   2064
42.6    2345
42.62   2611
42.64   2907
42.66   3360
42.68   3858
42.7    4048
42.72   4274
42.74   4334
42.76   4417
42.78   4474
42.8    4667
42.82   5060
42.84   5108
42.86   5069
42.88   4708
42.9    4393
42.92   4026
42.94   3731
42.96   3384
42.98   3159
43      2953
43.02   2610
43.04   2269
43.06   2108
43.08   1993
43.1    1942
43.12   2112
43.14   2160
43.16   2349
43.18   2644
43.2    3028
43.22   3784
43.24   4311
43.26   4624
43.28   4584
43.3    4021
43.32   3692
43.34   3566
43.36   3452
43.38   3217
43.4    2960
43.42   2609
43.44   2221
43.46   1969
43.48   1777
43.5    1823
43.52   1902
43.54   1948
43.56   2087
43.58   2291
43.6    2258
43.62   2169
43.64   1913
43.66   1763
43.68   1828
43.7    1788
43.72   1633
43.74   1581
43.76   1402
43.78   1223
43.8    1173
43.82   1085
43.84   1132
43.86   1049
43.88   1040
43.9    996
43.92   1032
43.94   1041
43.96   1089
43.98   1062
44      989
44.02   1083
44.04   1124
44.06   1063
44.08   1108
44.1    1222
44.12   1234
44.14   1352
44.16   1401
44.18   1445
44.2    1525
44.22   1551
44.24   1529
44.26   1424
44.28   1357
44.3    1373
44.32   1379
44.34   1331
44.36   1216
44.38   1198
44.4    1155
44.42   1075
44.44   1037
44.46   1028
44.48   1008
44.5    1034
44.52   1049
44.54   1062
44.56   993
44.58   1105
44.6    1043
44.62   1007
44.64   1118
44.66   1105
44.68   1066
44.7    1093
44.72   1110
44.74   1241
44.76   1262
44.78   1261
44.8    1348
44.82   1506
44.84   1610
44.86   1656
44.88   1853
44.9    2007
44.92   2324
44.94   2656
44.96   3216
44.98   3736
45      4192
45.02   3985
45.04   3573
45.06   3083
45.08   2964
45.1    3357
45.12   3626
45.14   3655
45.16   3705
45.18   3487
45.2    3300
45.22   3062
45.24   2704
45.26   2405
45.28   2417
45.3    2251
45.32   2204
45.34   1900
45.36   1832
45.38   1633
45.4    1545
45.42   1534
45.44   1421
45.46   1451
45.48   1358
45.5    1295
45.52   1265
45.54   1229
45.56   1177
45.58   1173
45.6    1209
45.62   1143
45.64   1136
45.66   1189
45.68   1131
45.7    1223
45.72   1258
45.74   1328
45.76   1428
45.78   1633
45.8    1692
45.82   1986
45.84   2130
45.86   2133
45.88   2129
45.9    2147
45.92   2041
45.94   1953
45.96   1990
45.98   1960
46      1950
46.02   1922
46.04   1960
46.06   1989
46.08   2079
46.1    2151
46.12   2169
46.14   2132
46.16   2136
46.18   2062
46.2    2083
46.22   2126
46.24   2111
46.26   2021
46.28   1929
46.3    1917
46.32   1984
46.34   1977
46.36   1995
46.38   2144
46.4    2242
46.42   2522
46.44   3099
46.46   3927
46.48   5487
46.5    8119
46.52   12431
46.54   18189
46.56   24622
46.58   28492
46.6    28283
46.62   24013
46.64   18913
46.66   16076
46.68   16068
46.7    16296
46.72   15452
46.74   12516
46.76   8843
46.78   5579
46.8    3821
46.82   2699
46.84   2200
46.86   1850
46.88   1645
46.9    1510
46.92   1383
46.94   1317
46.96   1322
46.98   1141
47      1145
47.02   1135
47.04   1113
47.06   1033
47.08   1079
47.1    1058
47.12   1052
47.14   1045
47.16   1029
47.18   1111
47.2    1106
47.22   1087
47.24   1199
47.26   1275
47.28   1268
47.3    1340
47.32   1368
47.34   1365
47.36   1364
47.38   1299
47.4    1272
47.42   1246
47.44   1186
47.46   1147
47.48   1088
47.5    1031
47.52   959
47.54   949
47.56   947
47.58   870
47.6    935
47.62   842
47.64   860
47.66   888
47.68   826
47.7    880
47.72   863
47.74   872
47.76   865
47.78   884
47.8    915
47.82   846
47.84   922
47.86   868
47.88   824
47.9    927
47.92   879
47.94   887
47.96   907
47.98   885
48      901
48.02   968
48.04   885
48.06   892
48.08   958
48.1    966
48.12   968
48.14   974
48.16   979
48.18   1015
48.2    1070
48.22   1137
48.24   1131
48.26   1249
48.28   1474
48.3    1633
48.32   1827
48.34   2291
48.36   2598
48.38   3050
48.4    2913
48.42   2823
48.44   2507
48.46   2219
48.48   2255
48.5    2248
48.52   2239
48.54   2127
48.56   1798
48.58   1608
48.6    1536
48.62   1317
48.64   1330
48.66   1262
48.68   1267
48.7    1280
48.72   1358
48.74   1447
48.76   1641
48.78   1896
48.8    2488
48.82   3466
48.84   4948
48.86   6611
48.88   7751
48.9    7596
48.92   6178
48.94   4912
48.96   4219
48.98   4390
49      5079
49.02   5291
49.04   5063
49.06   4272
49.08   3636
49.1    3343
49.12   3239
49.14   3270
49.16   3370
49.18   3483
49.2    3659
49.22   4004
49.24   4165
49.26   4035
49.28   3838
49.3    3443
49.32   3220
49.34   3020
49.36   2904
49.38   2905
49.4    2671
49.42   2407
49.44   2163
49.46   1939
49.48   1804
49.5    1760
49.52   1623
49.54   1576
49.56   1503
49.58   1479
49.6    1471
49.62   1434
49.64   1554
49.66   1534
49.68   1615
49.7    1714
49.72   1892
49.74   2076
49.76   2364
49.78   2665
49.8    3049
49.82   3245
49.84   3384
49.86   3146
49.88   2836
49.9    2775
49.92   2639
49.94   2661
49.96   2501
49.98   2428
50      2170
50.02   1972
50.04   1844
50.06   1601
50.08   1567
50.1    1544
50.12   1587
50.14   1643
50.16   1802
50.18   1833
50.2    1970
50.22   1991
50.24   2111
50.26   2092
50.28   2077
50.3    2078
50.32   2129
50.34   2155
50.36   2423
50.38   2914
50.4    3541
50.42   4470
50.44   5685
50.46   6683
50.48   7007
50.5    6068
50.52   5151
50.54   4146
50.56   3883
50.58   3831
50.6    4066
50.62   3961
50.64   3430
50.66   2600
50.68   1945
50.7    1523
50.72   1358
50.74   1123
50.76   1113
50.78   1051
50.8    1074
50.82   998
50.84   906
50.86   916
50.88   1002
50.9    938
50.92   938
50.94   963
50.96   963
50.98   989
51      916
51.02   907
51.04   892
51.06   956
51.08   934
51.1    972
51.12   930
51.14   940
51.16   1033
51.18   1015
51.2    1048
51.22   1058
51.24   1082
51.26   1117
51.28   1180
51.3    1160
51.32   1152
51.34   1145
51.36   1150
51.38   1188
51.4    1186
51.42   1333
51.44   1327
51.46   1359
51.48   1516
51.5    1664
51.52   1878
51.54   1959
51.56   2142
51.58   2281
51.6    2489
51.62   2723
51.64   3219
51.66   3684
51.68   4356
51.7    4888
51.72   5448
51.74   5982
51.76   6125
51.78   6031
51.8    5819
51.82   5316
51.84   4930
51.86   4633
51.88   4351
51.9    4005
51.92   3626
51.94   3189
51.96   2957
51.98   2450
52      2134
52.02   1917
52.04   1700
52.06   1543
52.08   1532
52.1    1511
52.12   1341
52.14   1365
52.16   1366
52.18   1397
52.2    1515
52.22   1628
52.24   1775
52.26   2001
52.28   1990
52.3    1947
52.32   1876
52.34   1684
52.36   1567
52.38   1611
52.4    1635
52.42   1640
52.44   1649
52.46   1548
52.48   1503
52.5    1501
52.52   1539
52.54   1691
52.56   1853
52.58   2097
52.6    2332
52.62   2360
52.64   2380
52.66   2459
52.68   2290
52.7    2251
52.72   2162
52.74   2119
52.76   2057
52.78   1883
52.8    1838
52.82   1740
52.84   1703
52.86   1616
52.88   1545
52.9    1420
52.92   1522
52.94   1588
52.96   1779
52.98   1902
53      2039
53.02   2185
53.04   2270
53.06   2150
53.08   2025
53.1    2073
53.12   2059
53.14   2315
53.16   2580
53.18   3080
53.2    3732
53.22   4955
53.24   6806
53.26   9129
53.28   11131
53.3    11866
53.32   10989
53.34   9143
53.36   7527
53.38   6410
53.4    6357
53.42   6763
53.44   7009
53.46   6453
53.48   5314
53.5    4106
53.52   3132
53.54   2510
53.56   2228
53.58   2170
53.6    2327
53.62   2543
53.64   2889
53.66   3295
53.68   3863
53.7    4113
53.72   4001
53.74   3756
53.76   3230
53.78   3036
53.8    2786
53.82   2817
53.84   2831
53.86   2597
53.88   2473
53.9    2208
53.92   1868
53.94   1753
53.96   1509
53.98   1528
54      1440
54.02   1393
54.04   1329
54.06   1264
54.08   1215
54.1    1247
54.12   1226
54.14   1210
54.16   1195
54.18   1185
54.2    1190
54.22   1196
54.24   1264
54.26   1261
54.28   1302
54.3    1334
54.32   1509
54.34   1569
54.36   1599
54.38   1810
54.4    2030
54.42   2277
54.44   2417
54.46   2756
54.48   2686
54.5    2701
54.52   2648
54.54   2436
54.56   2450
54.58   2318
54.6    2338
54.62   2282
54.64   2348
54.66   2273
54.68   2225
54.7    2345
54.72   2426
54.74   2472
54.76   2706
54.78   2810
54.8    2912
54.82   3161
54.84   3283
54.86   3666
54.88   3943
54.9    4364
54.92   4617
54.94   4674
54.96   4417
54.98   3884
55      3702
55.02   3340
55.04   3168
55.06   3067
55.08   3050
55.1    2796
55.12   2700
55.14   2270
55.16   2173
55.18   2008
55.2    1989
55.22   1848
55.24   1899
55.26   1924
55.28   2003
55.3    2109
55.32   2297
55.34   2476
55.36   2584
55.38   2625
55.4    2701
55.42   2621
55.44   2562
55.46   2440
55.48   2380
55.5    2343
55.52   2163
55.54   2212
55.56   2068
55.58   2072
55.6    1932
55.62   1806
55.64   1779
55.66   1745
55.68   1692
55.7    1714
55.72   1704
55.74   1736
55.76   1899
55.78   2061
55.8    2199
55.82   2404
55.84   2491
55.86   2382
55.88   2214
55.9    2046
55.92   1937
55.94   1923
55.96   1880
55.98   2019
56      2003
56.02   2081
56.04   2095
56.06   2142
56.08   2234
56.1    2313
56.12   2341
56.14   2185
56.16   2084
56.18   2025
56.2    2076
56.22   2192
56.24   2130
56.26   2274
56.28   2292
56.3    2116
56.32   1947
56.34   1839
56.36   1787
56.38   1791
56.4    1795
56.42   1892
56.44   1898
56.46   2040
56.48   2181
56.5    2300
56.52   2460
56.54   2588
56.56   2689
56.58   2714
56.6    2624
56.62   2604
56.64   2557
56.66   2395
56.68   2245
56.7    2160
56.72   2075
56.74   1937
56.76   1858
56.78   1725
56.8    1673
56.82   1440
56.84   1369
56.86   1303
56.88   1286
56.9    1223
56.92   1157
56.94   1163
56.96   1192
56.98   1230
57      1210
57.02   1208
57.04   1310
57.06   1373
57.08   1558
57.1    1690
57.12   2001
57.14   2252
57.16   2304
57.18   2419
57.2    2401
57.22   2393
57.24   2160
57.26   2095
57.28   1944
57.3    2080
57.32   2132
57.34   2196
57.36   2227
57.38   2125
57.4    2123
57.42   2131
57.44   2074
57.46   2005
57.48   2089
57.5    2068
57.52   2092
57.54   2064
57.56   2136
57.58   2020
57.6    1954
57.62   2002
57.64   2012
57.66   2189
57.68   2445
57.7    2697
57.72   2929
57.74   2831
57.76   2805
57.78   2521
57.8    2209
57.82   2325
57.84   2334
57.86   2444
57.88   2471
57.9    2317
57.92   2197
57.94   2065
57.96   1869
57.98   1951
58      1917
58.02   2016
58.04   2112
58.06   2296
58.08   2454
58.1    2682
58.12   2865
58.14   2831
58.16   2801
58.18   2710
58.2    2458
58.22   2333
58.24   2291
58.26   2190
58.28   2223
58.3    2119
58.32   1967
58.34   1848
58.36   1636
58.38   1470
58.4    1419
58.42   1249
58.44   1197
58.46   1133
58.48   1033
58.5    947
58.52   913
58.54   868
58.56   872
58.58   898
58.6    888
58.62   855
58.64   870
58.66   911
58.68   859
58.7    855
58.72   853
58.74   902
58.76   917
58.78   938
58.8    925
58.82   1091
58.84   1153
58.86   1349
58.88   1558
58.9    1577
58.92   1430
58.94   1157
58.96   1145
58.98   1059
59      1093
59.02   1236
59.04   1282
59.06   1476
59.08   1451
59.1    1479
59.12   1476
59.14   1521
59.16   1428
59.18   1358
59.2    1235
59.22   1196
59.24   1155
59.26   1154
59.28   1132
59.3    1064
59.32   1116
59.34   1064
59.36   1031
59.38   989
59.4    823
59.42   820
59.44   870
59.46   815
59.48   837
59.5    762
59.52   799
59.54   815
59.56   836
59.58   801
59.6    875
59.62   955
59.64   945
59.66   970
59.68   1091
59.7    1148
59.72   1275
59.74   1255
59.76   1212
59.78   1077
59.8    1038
59.82   1124
59.84   1106
59.86   1082
59.88   1174
59.9    1140
59.92   1113
59.94   993
59.96   1051
59.98   997
60      991
60.02   939
60.04   972
60.06   980
60.08   957
60.1    956
60.12   836
60.14   930
60.16   886
60.18   838
60.2    830
60.22   869
60.24   848
60.26   836
60.28   799
60.3    753
60.32   798
60.34   791
60.36   800
60.38   793
60.4    737
60.42   836
60.44   816
60.46   837
60.48   830
60.5    853
60.52   877
60.54   892
60.56   853
60.58   913
60.6    860
60.62   868
60.64   857
60.66   847
60.68   816
60.7    914
60.72   824
60.74   795
60.76   812
60.78   794
60.8    793
60.82   825
60.84   819
60.86   867
60.88   919
60.9    955
60.92   910
60.94   999
60.96   1034
60.98   988
61      937
61.02   982
61.04   1036
61.06   1123
61.08   1193
61.1    1262
61.12   1653
61.14   1734
61.16   1808
61.18   1792
61.2    1670
61.22   1605
61.24   1552
61.26   1602
61.28   1659
61.3    1757
61.32   1895
61.34   1862
61.36   1599
61.38   1516
61.4    1325
61.42   1228
61.44   1252
61.46   1169
61.48   1194
61.5    1136
61.52   1076
61.54   984
61.56   907
61.58   959
61.6    916
61.62   849
61.64   902
61.66   877
61.68   964
61.7    941
61.72   969
61.74   1022
61.76   1084
61.78   1076
61.8    1152
61.82   1175
61.84   1236
61.86   1188
61.88   1287
61.9    1263
61.92   1221
61.94   1355
61.96   1475
61.98   1508
62      1648
62.02   1605
62.04   1518
62.06   1410
62.08   1310
62.1    1276
62.12   1241
62.14   1151
62.16   1192
62.18   1118
62.2    1127
62.22   1133
62.24   1025
62.26   1011
62.28   915
62.3    906
62.32   895
62.34   888
62.36   962
62.38   947
62.4    963
62.42   1020
62.44   1003
62.46   1109
62.48   1126
62.5    1141
62.52   1134
62.54   1152
62.56   1151
62.58   1125
62.6    1220
62.62   1166
62.64   1143
62.66   1218
62.68   1217
62.7    1158
62.72   1134
62.74   1181
62.76   1093
62.78   1119
62.8    1157
62.82   1194
62.84   1333
62.86   1355
62.88   1554
62.9    1699
62.92   1707
62.94   1602
62.96   1584
62.98   1575
63      1466
63.02   1581
63.04   1596
63.06   1879
63.08   2157
63.1    2434
63.12   2803
63.14   2890
63.16   2757
63.18   2515
63.2    2357
63.22   2258
63.24   2042
63.26   2036
63.28   2099
63.3    2083
63.32   2237
63.34   2155
63.36   2098
63.38   1989
63.4    1973
63.42   1853
63.44   1664
63.46   1532
63.48   1502
63.5    1391
63.52   1363
63.54   1347
63.56   1333
63.58   1305
63.6    1382
63.62   1285
63.64   1257
63.66   1250
63.68   1172
63.7    1206
63.72   1278
63.74   1272
63.76   1389
63.78   1392
63.8    1429
63.82   1647
63.84   1732
63.86   1903
63.88   2018
63.9    2339
63.92   2366
63.94   2493
63.96   2440
63.98   2448
64      2331
64.02   2136
64.04   2178
64.06   2044
64.08   2197
64.1    2226
64.12   2015
64.14   2077
64.16   1999
64.18   1839
64.2    1755
64.22   1714
64.24   1548
64.26   1509
64.28   1402
64.3    1320
64.32   1374
64.34   1324
64.36   1309
64.38   1352
64.4    1382
64.42   1386
64.44   1484
64.46   1458
64.48   1520
64.5    1441
64.52   1261
64.54   1356
64.56   1288
64.58   1334
64.6    1350
64.62   1492
64.64   1514
64.66   1671
64.68   1782
64.7    1746
64.72   1706
64.74   1593
64.76   1443
64.78   1216
64.8    1173
64.82   1196
64.84   1090
64.86   1209
64.88   1242
64.9    1081
64.92   1097
64.94   1023
64.96   936
64.98   869
65      852
65.02   818
65.04   838
65.06   797
65.08   801
65.1    799
65.12   748
65.14   726
65.16   791
65.18   803
65.2    765
65.22   783
65.24   776
65.26   786
65.28   816
65.3    813
65.32   831
65.34   839
65.36   925
65.38   884
65.4    956
65.42   898
65.44   945
65.46   998
65.48   954
65.5    980
65.52   956
65.54   984
65.56   966
65.58   905
65.6    912
65.62   902
65.64   845
65.66   900
65.68   860
65.7    880
65.72   791
65.74   798
65.76   844
65.78   806
65.8    862
65.82   830
65.84   868
65.86   900
65.88   934
65.9    960
65.92   1022
65.94   1076
65.96   1116
65.98   1165
66      1137
66.02   1111
66.04   1073
66.06   1079
66.08   1067
66.1    1048
66.12   1073
66.14   1143
66.16   1274
66.18   1290
66.2    1290
66.22   1436
66.24   1464
66.26   1683
66.28   1896
66.3    2342
66.32   2591
66.34   3059
66.36   3287
66.38   3274
66.4    3125
66.42   2888
66.44   2856
66.46   2872
66.48   2771
66.5    2830
66.52   2940
66.54   2895
66.56   2857
66.58   2619
66.6    2469
66.62   2159
66.64   2072
66.66   1997
66.68   1899
66.7    1748
66.72   1657
66.74   1536
66.76   1440
66.78   1375
66.8    1291
66.82   1215
66.84   1213
66.86   1091
66.88   1107
66.9    1092
66.92   1116
66.94   1094
66.96   1132
66.98   1101
67      1218
67.02   1141
67.04   1237
67.06   1389
67.08   1460
67.1    1557
67.12   1525
67.14   1529
67.16   1556
67.18   1423
67.2    1363
67.22   1357
67.24   1311
67.26   1308
67.28   1317
67.3    1334
67.32   1323
67.34   1200
67.36   1189
67.38   1204
67.4    1132
67.42   1099
67.44   1027
67.46   1047
67.48   1046
67.5    1013
67.52   1010
67.54   1000
67.56   955
67.58   942
67.6    878
67.62   892
67.64   970
67.66   934
67.68   925
67.7    980
67.72   995
67.74   1140
67.76   1147
67.78   1198
67.8    1235
67.82   1274
67.84   1311
67.86   1182
67.88   1117
67.9    1010
67.92   1001
67.94   986
67.96   1052
67.98   1052
68      1056
68.02   1024
68.04   1087
68.06   1154
68.08   1090
68.1    1047
68.12   1105
68.14   1065
68.16   1136
68.18   1096
68.2    1080
68.22   1081
68.24   1157
68.26   1227
68.28   1169
68.3    1154
68.32   1118
68.34   1162
68.36   1164
68.38   1191
68.4    1126
68.42   1084
68.44   1005
68.46   1068
68.48   1117
68.5    1091
68.52   993
68.54   932
68.56   917
68.58   847
68.6    858
68.62   847
68.64   837
68.66   787
68.68   860
68.7    791
68.72   806
68.74   721
68.76   767
68.78   694
68.8    717
68.82   699
68.84   756
68.86   689
68.88   716
68.9    773
68.92   707
68.94   744
68.96   747
68.98   776
69      787
69.02   780
69.04   889
69.06   854
69.08   986
69.1    1050
69.12   1115
69.14   1202
69.16   1210
69.18   1213
69.2    1182
69.22   1111
69.24   1088
69.26   1056
69.28   1037
69.3    1136
69.32   1103
69.34   1163
69.36   1234
69.38   1387
69.4    1603
69.42   1811
69.44   2188
69.46   2893
69.48   3313
69.5    3513
69.52   3303
69.54   2706
69.56   2219
69.58   1930
69.6    1732
69.62   1814
69.64   1977
69.66   2279
69.68   2508
69.7    2564
69.72   2494
69.74   2263
69.76   2094
69.78   1909
69.8    1798
69.82   1702
69.84   1654
69.86   1653
69.88   1688
69.9    1742
69.92   1910
69.94   1940
69.96   2160
69.98   2268
70      2495
70.02   2585
70.04   2572
70.06   2354
70.08   2148
70.1    1852
70.12   1602
70.14   1627
70.16   1605
70.18   1671
70.2    1816
70.22   1870
70.24   1981
70.26   2056
70.28   2060
70.3    1992
70.32   1903
70.34   1813
70.36   1678
70.38   1481
70.4    1416
70.42   1361
70.44   1271
70.46   1244
70.48   1326
70.5    1444
70.52   1323
70.54   1340
70.56   1251
70.58   1112
70.6    1106
70.62   1049
70.64   950
70.66   964
70.68   954
70.7    917
70.72   1004
70.74   1014
70.76   1107
70.78   1084
70.8    1040
70.82   1029
70.84   938
70.86   910
70.88   820
70.9    841
70.92   868
70.94   857
70.96   862
70.98   902
71      882
71.02   837
71.04   906
71.06   841
71.08   806
71.1    784
71.12   721
71.14   723
71.16   747
71.18   746
71.2    794
71.22   743
71.24   752
71.26   736
71.28   786
71.3    724
71.32   698
71.34   742
71.36   816
71.38   893
71.4    885
71.42   964
71.44   934
71.46   932
71.48   935
71.5    899
71.52   836
71.54   835
71.56   804
71.58   790
71.6    800
71.62   845
71.64   832
71.66   844
71.68   845
71.7    850
71.72   783
71.74   831
71.76   824
71.78   848
71.8    898
71.82   981
71.84   1056
71.86   1145
71.88   1169
71.9    1211
71.92   1095
71.94   1076
71.96   1078
71.98   1147
72      1096
72.02   1115
72.04   1163
72.06   1262
72.08   1179
72.1    1122
72.12   1215
72.14   1157
72.16   1033
72.18   1102
72.2    1163
72.22   1154
72.24   1169
72.26   1127
72.28   1044
72.3    1035
72.32   1004
72.34   940
72.36   981
72.38   918
72.4    857
72.42   873
72.44   900
72.46   852
72.48   911
72.5    796
72.52   806
72.54   811
72.56   896
72.58   806
72.6    848
72.62   820
72.64   783
72.66   823
72.68   771
72.7    771
72.72   811
72.74   793
72.76   829
72.78   857
72.8    937
72.82   929
72.84   974
72.86   1008
72.88   980
72.9    1003
72.92   1003
72.94   951
72.96   958
72.98   955
73      889
73.02   888
73.04   872
73.06   871
73.08   871
73.1    860
73.12   851
73.14   837
73.16   860
73.18   887
73.2    851
73.22   969
73.24   884
73.26   957
73.28   928
73.3    976
73.32   1072
73.34   1172
73.36   1316
73.38   1605
73.4    1796
73.42   2199
73.44   2455
73.46   2659
73.48   2545
73.5    2342
73.52   2031
73.54   1681
73.56   1466
73.58   1392
73.6    1446
73.62   1504
73.64   1599
73.66   1675
73.68   1758
73.7    1695
73.72   1403
73.74   1325
73.76   1123
73.78   1047
73.8    966
73.82   919
73.84   971
73.86   929
73.88   913
73.9    999
73.92   1055
73.94   1073
73.96   1113
73.98   1147
74      1216
74.02   1152
74.04   1098
74.06   1067
74.08   1052
74.1    999
74.12   944
74.14   917
74.16   1003
74.18   965
74.2    1043
74.22   1043
74.24   1050
74.26   1098
74.28   1001
74.3    953
74.32   988
74.34   919
74.36   993
74.38   1019
74.4    1027
74.42   1101
74.44   1114
74.46   1177
74.48   1212
74.5    1118
74.52   1046
74.54   1037
74.56   1030
74.58   991
74.6    920
74.62   891
74.64   952
74.66   929
74.68   924
74.7    933
74.72   890
74.74   854
74.76   837
74.78   763
74.8    764
74.82   768
74.84   733
74.86   746
74.88   752
74.9    766
74.92   762
74.94   722
74.96   738
74.98   834
75      796
75.02   795
75.04   867
75.06   825
75.08   798
75.1    819
75.12   827
75.14   900
75.16   925
75.18   919
75.2    966
75.22   977
75.24   994
75.26   901
75.28   894
75.3    887
75.32   919
75.34   880
75.36   887
75.38   775
75.4    928
75.42   829
75.44   960
75.46   949
75.48   914
75.5    954
75.52   976
75.54   1027
75.56   1055
75.58   1119
75.6    1069
75.62   1228
75.64   1461
75.66   1551
75.68   1642
75.7    1779
75.72   1678
75.74   1620
75.76   1457
75.78   1519
75.8    1393
75.82   1427
75.84   1315
75.86   1398
75.88   1369
75.9    1329
75.92   1400
75.94   1293
75.96   1221
75.98   1170
76      1143
76.02   1110
76.04   982
76.06   1000
76.08   901
76.1    854
76.12   852
76.14   830
76.16   800
76.18   809
76.2    773
76.22   762
76.24   758
76.26   799
76.28   786
76.3    764
76.32   857
76.34   866
76.36   848
76.38   898
76.4    956
76.42   935
76.44   1009
76.46   975
76.48   987
76.5    964
76.52   942
76.54   904
76.56   993
76.58   1003
76.6    956
76.62   989
76.64   1020
76.66   1091
76.68   1099
76.7    1103
76.72   1015
76.74   997
76.76   1009
76.78   917
76.8    955
76.82   909
76.84   841
76.86   859
76.88   873
76.9    788
76.92   821
76.94   786
76.96   790
76.98   744
77      777
77.02   758
77.04   740
77.06   768
77.08   798
77.1    768
77.12   789
77.14   766
77.16   863
77.18   852
77.2    872
77.22   920
77.24   961
77.26   1007
77.28   1088
77.3    1054
77.32   1181
77.34   1101
77.36   1155
77.38   1187
77.4    1206
77.42   1251
77.44   1265
77.46   1386
77.48   1390
77.5    1329
77.52   1381
77.54   1371
77.56   1313
77.58   1222
77.6    1275
77.62   1205
77.64   1213
77.66   1125
77.68   1146
77.7    1079
77.72   990
77.74   1008
77.76   991
77.78   913
77.8    900
77.82   889
77.84   830
77.86   725
77.88   782
77.9    769
77.92   719
77.94   765
77.96   704
77.98   709
78      718
78.02   754
78.04   708
78.06   772
78.08   773
78.1    721
78.12   760
78.14   700
78.16   684
78.18   632
78.2    656
78.22   641
78.24   672
78.26   634
78.28   613
78.3    640
78.32   638
78.34   667
78.36   620
78.38   612
78.4    588
78.42   586
78.44   590
78.46   559
78.48   586
78.5    625
78.52   633
78.54   657
78.56   684
78.58   644
78.6    648
78.62   630
78.64   609
78.66   563
78.68   609
78.7    608
78.72   645
78.74   624
78.76   620
78.78   600
78.8    654
78.82   653
78.84   626
78.86   638
78.88   654
78.9    685
78.92   665
78.94   687
78.96   725
78.98   692
79      703
79.02   730
79.04   732
79.06   731
79.08   793
79.1    756
79.12   794
79.14   727
79.16   771
79.18   759
79.2    707
79.22   666
79.24   691
79.26   677
79.28   721
79.3    650
79.32   646
79.34   643
79.36   609
79.38   621
79.4    654
79.42   661
79.44   674
79.46   633
79.48   637
79.5    654
79.52   665
79.54   736
79.56   867
79.58   939
79.6    1020
79.62   1046
79.64   1051
79.66   970
79.68   907
79.7    861
79.72   805
79.74   696
79.76   795
79.78   792
79.8    902
79.82   1128
79.84   1197
79.86   1386
79.88   1454
79.9    1435
79.92   1518
79.94   1347
79.96   1309
79.98   1174
80      972
80.02   914
80.04   936
80.06   879
80.08   929
80.1    944
80.12   953
80.14   980
80.16   985
80.18   942
80.2    914
80.22   840
80.24   813
80.26   739
80.28   748
80.3    695
80.32   740
80.34   684
80.36   703
80.38   672
80.4    699
80.42   705
80.44   692
80.46   720
80.48   729
80.5    678
80.52   723
80.54   704
80.56   706
80.58   655
80.6    716
80.62   698
80.64   718
80.66   753
80.68   788
80.7    835
80.72   855
80.74   941
80.76   997
80.78   1045
80.8    1091
80.82   1143
80.84   1056
80.86   1028
80.88   1012
80.9    964
80.92   951
80.94   936
80.96   957
80.98   1090
81      1061
81.02   1129
81.04   1179
81.06   1223
81.08   1294
81.1    1268
81.12   1281
81.14   1216
81.16   1135
81.18   1068
81.2    1052
81.22   965
81.24   953
81.26   949
81.28   935
81.3    920
81.32   910
81.34   919
81.36   916
81.38   853
81.4    817
81.42   860
81.44   810
81.46   804
81.48   812
81.5    836
81.52   792
81.54   872
81.56   841
81.58   887
81.6    915
81.62   940
81.64   963
81.66   880
81.68   965
81.7    853
81.72   906
81.74   842
81.76   839
81.78   874
81.8    809
81.82   876
81.84   840
81.86   836
81.88   815
81.9    897
81.92   884
81.94   846
81.96   869
81.98   841
82      755
82.02   713
82.04   766
82.06   680
82.08   708
82.1    688
82.12   688
82.14   672
82.16   694
82.18   725
82.2    674
82.22   692
82.24   684
82.26   728
82.28   745
82.3    736
82.32   808
82.34   879
82.36   993
82.38   1063
82.4    1087
82.42   1148
82.44   1132
82.46   1067
82.48   1021
82.5    959
82.52   899
82.54   851
82.56   768
82.58   841
82.6    822
82.62   849
82.64   946
82.66   874
82.68   919
82.7    850
82.72   833
82.74   792
82.76   737
82.78   709
82.8    788
82.82   659
82.84   688
82.86   639
82.88   673
82.9    662
82.92   673
82.94   609
82.96   642
82.98   626
83      656
83.02   701
83.04   639
83.06   657
83.08   629
83.1    661
83.12   668
83.14   732
83.16   740
83.18   705
83.2    751
83.22   803
83.24   807
83.26   803
83.28   821
83.3    747
83.32   783
83.34   816
83.36   732
83.38   755
83.4    775
83.42   765
83.44   666
83.46   696
83.48   645
83.5    651
83.52   694
83.54   636
83.56   673
83.58   618
83.6    604
83.62   643
83.64   651
83.66   622
83.68   625
83.7    626
83.72   636
83.74   613
83.76   595
83.78   597
83.8    573
83.82   632
83.84   567
83.86   589
83.88   607
83.9    561
83.92   681
83.94   577
83.96   631
83.98   643
84      658
84.02   598
84.04   625
84.06   592
84.08   634
84.1    692
84.12   593
84.14   667
84.16   668
84.18   634
84.2    666
84.22   642
84.24   655
84.26   704
84.28   695
84.3    648
84.32   658
84.34   661
84.36   669
84.38   696
84.4    664
84.42   696
84.44   721
84.46   759
84.48   795
84.5    822
84.52   832
84.54   886
84.56   796
84.58   853
84.6    945
84.62   908
84.64   945
84.66   874
84.68   943
84.7    939
84.72   946
84.74   972
84.76   842
84.78   825
84.8    777
84.82   794
84.84   777
84.86   753
84.88   730
84.9    740
84.92   775
84.94   768
84.96   730
84.98   720
85      697
85.02   643
85.04   626
85.06   605
85.08   596
85.1    628
85.12   535
85.14   645
85.16   588
85.18   601
85.2    586
85.22   552
85.24   570
85.26   567
85.28   549
85.3    571
85.32   597
85.34   592
85.36   583
85.38   620
85.4    567
85.42   559
85.44   592
85.46   624
85.48   554
85.5    548
85.52   578
85.54   583
85.56   613
85.58   613
85.6    578
85.62   590
85.64   588
85.66   581
85.68   599
85.7    602
85.72   612
85.74   599
85.76   629
85.78   530
85.8    546
85.82   636
85.84   570
85.86   578
85.88   530
85.9    542
85.92   530
85.94   497
85.96   552
85.98   538
86      491
86.02   558
86.04   537
86.06   541
86.08   576
86.1    564
86.12   584
86.14   654
86.16   609
86.18   607
86.2    562
86.22   597
86.24   613
86.26   590
86.28   566
86.3    590
86.32   629
86.34   652
86.36   689
86.38   666
86.4    670
86.42   689
86.44   710
86.46   712
86.48   706
86.5    741
86.52   689
86.54   726
86.56   743
86.58   755
86.6    705
86.62   693
86.64   688
86.66   660
86.68   584
86.7    586
86.72   652
86.74   601
86.76   595
86.78   640
86.8    666
86.82   671
86.84   648
86.86   647
86.88   645
86.9    635
86.92   609
86.94   576
86.96   555
86.98   586
87      522
87.02   558
87.04   572
87.06   599
87.08   539
87.1    530
87.12   551
87.14   579
87.16   570
87.18   558
87.2    581
87.22   536
87.24   563
87.26   544
87.28   525
87.3    532
87.32   522
87.34   545
87.36   518
87.38   529
87.4    482
87.42   536
87.44   523
87.46   523
87.48   560
87.5    552
87.52   548
87.54   563
87.56   601
87.58   591
87.6    636
87.62   635
87.64   690
87.66   649
87.68   732
87.7    728
87.72   689
87.74   734
87.76   697
87.78   666
87.8    689
87.82   660
87.84   613
87.86   632
87.88   643
87.9    594
87.92   650
87.94   602
87.96   616
87.98   634
88      681
88.02   638
88.04   633
88.06   624
88.08   550
88.1    590
88.12   595
88.14   573
88.16   615
88.18   519
88.2    608
88.22   562
88.24   582
88.26   573
88.28   584
88.3    596
88.32   567
88.34   619
88.36   605
88.38   602
88.4    604
88.42   650
88.44   629
88.46   682
88.48   677
88.5    749
88.52   726
88.54   824
88.56   748
88.58   808
88.6    755
88.62   899
88.64   900
88.66   904
88.68   946
88.7    931
88.72   974
88.74   1057
88.76   1101
88.78   1097
88.8    1006
88.82   1015
88.84   1035
88.86   968
88.88   887
88.9    849
88.92   804
88.94   764
88.96   784
88.98   814
89      789
89.02   852
89.04   828
89.06   791
89.08   781
89.1    825
89.12   770
89.14   725
89.16   724
89.18   667
89.2    631
89.22   656
89.24   664
89.26   626
89.28   647
89.3    639
89.32   604
89.34   663
89.36   670
89.38   662
89.4    629
89.42   613
89.44   631
89.46   698
89.48   615
89.5    715
89.52   744
89.54   819
89.56   893
89.58   957
89.6    1079
89.62   1112
89.64   1119
89.66   1135
89.68   1092
89.7    1043
89.72   1012
89.74   881
89.76   859
89.78   816
89.8    743
89.82   802
89.84   777
89.86   819
89.88   831
89.9    841
89.92   830
89.94   861
89.96   785
89.98   857
90      809
90.02   731
90.04   761
90.06   734
90.08   775
90.1    704
90.12   763
90.14   770
90.16   815
90.18   783
90.2    758
90.22   708
90.24   727
90.26   748
90.28   663
90.3    750
90.32   726
90.34   688
90.36   724
90.38   765
90.4    811
90.42   770
90.44   870
90.46   854
90.48   956
90.5    933
90.52   896
90.54   943
90.56   861
90.58   831
90.6    814
90.62   855
90.64   786
90.66   748
90.68   812
90.7    760
90.72   751
90.74   756
90.76   785
90.78   783
90.8    790
90.82   733
90.84   705
90.86   729
90.88   727
90.9    750
90.92   742
90.94   748
90.96   701
90.98   766
91      690
91.02   693
91.04   807
91.06   747
91.08   688
91.1    695
91.12   693
91.14   729
91.16   734
91.18   686
91.2    663
91.22   663
91.24   708
91.26   646
91.28   640
91.3    682
91.32   649
91.34   587
91.36   680
91.38   632
91.4    686
91.42   652
91.44   680
91.46   616
91.48   739
91.5    629
91.52   665
91.54   613
91.56   651
91.58   596
91.6    648
91.62   608
91.64   570
91.66   543
91.68   570
91.7    580
91.72   614
91.74   539
91.76   550
91.78   531
91.8    594
91.82   581
91.84   512
91.86   517
91.88   531
91.9    541
91.92   572
91.94   536
91.96   544
91.98   533
92      531
92.02   541
92.04   525
92.06   545
92.08   516
92.1    521
92.12   503
92.14   559
92.16   565
92.18   575
92.2    543
92.22   594
92.24   616
92.26   604
92.28   606
92.3    600
92.32   632
92.34   621
92.36   596
92.38   607
92.4    588
92.42   632
92.44   532
92.46   598
92.48   648
92.5    570
92.52   619
92.54   592
92.56   597
92.58   555
92.6    592
92.62   594
92.64   571
92.66   603
92.68   595
92.7    569
92.72   535
92.74   565
92.76   580
92.78   613
92.8    565
92.82   564
92.84   563
92.86   497
92.88   545
92.9    535
92.92   553
92.94   530
92.96   582
92.98   632
93      539
93.02   494
93.04   592
93.06   543
93.08   566
93.1    576
93.12   544
93.14   523
93.16   576
93.18   519
93.2    560
93.22   574
93.24   601
93.26   596
93.28   616
93.3    619
93.32   683
93.34   744
93.36   740
93.38   729
93.4    808
93.42   790
93.44   856
93.46   758
93.48   761
93.5    724
93.52   682
93.54   618
93.56   656
93.58   585
93.6    681
93.62   683
93.64   712
93.66   739
93.68   726
93.7    689
93.72   708
93.74   723
93.76   689
93.78   658
93.8    636
93.82   647
93.84   613
93.86   638
93.88   594
93.9    664
93.92   600
93.94   638
93.96   582
93.98   627
94      607
94.02   610
94.04   627
94.06   589
94.08   597
94.1    591
94.12   577
94.14   627
94.16   640
94.18   626
94.2    697
94.22   689
94.24   701
94.26   650
94.28   719
94.3    681
94.32   726
94.34   681
94.36   735
94.38   683
94.4    784
94.42   700
94.44   720
94.46   723
94.48   702
94.5    694
94.52   716
94.54   743
94.56   648
94.58   724
94.6    663
94.62   700
94.64   670
94.66   709
94.68   672
94.7    686
94.72   632
94.74   677
94.76   693
94.78   646
94.8    647
94.82   590
94.84   613
94.86   660
94.88   646
94.9    589
94.92   645
94.94   620
94.96   621
94.98   593
95      542
95.02   567
95.04   569
95.06   595
95.08   536
95.1    555
95.12   576
95.14   524
95.16   530
95.18   522
95.2    497
95.22   551
95.24   538
95.26   565
95.28   491
95.3    509
95.32   504
95.34   520
95.36   496
95.38   480
95.4    485
95.42   519
95.44   546
95.46   550
95.48   489
95.5    494
95.52   545
95.54   511
95.56   532
95.58   582
95.6    573
95.62   565
95.64   606
95.66   665
95.68   620
95.7    649
95.72   671
95.74   705
95.76   719
95.78   717
95.8    702
95.82   686
95.84   665
95.86   700
95.88   623
95.9    624
95.92   637
95.94   618
95.96   629
95.98   653
96      623
96.02   623
96.04   672
96.06   695
96.08   729
96.1    763
96.12   735
96.14   665
96.16   743
96.18   823
96.2    832
96.22   904
96.24   882
96.26   873
96.28   876
96.3    848
96.32   809
96.34   730
96.36   707
96.38   621
96.4    630
96.42   620
96.44   662
96.46   671
96.48   673
96.5    612
96.52   683
96.54   677
96.56   682
96.58   686
96.6    683
96.62   675
96.64   627
96.66   596
96.68   654
96.7    564
96.72   544
96.74   527
96.76   553
96.78   548
96.8    525
96.82   534
96.84   564
96.86   527
96.88   547
96.9    524
96.92   593
96.94   592
96.96   598
96.98   590
97      656
97.02   637
97.04   678
97.06   668
97.08   798
97.1    777
97.12   839
97.14   880
97.16   857
97.18   884
97.2    876
97.22   910
97.24   801
97.26   827
97.28   811
97.3    773
97.32   778
97.34   689
97.36   694
97.38   689
97.4    687
97.42   731
97.44   727
97.46   728
97.48   711
97.5    746
97.52   740
97.54   702
97.56   645
97.58   642
97.6    615
97.62   585
97.64   575
97.66   618
97.68   533
97.7    527
97.72   556
97.74   506
97.76   543
97.78   520
97.8    514
97.82   510
97.84   494
97.86   506
97.88   524
97.9    503
97.92   465
97.94   496
97.96   494
97.98   503
98      510
98.02   510
98.04   499
98.06   511
98.08   512
98.1    533
98.12   498
98.14   521
98.16   515
98.18   549
98.2    539
98.22   495
98.24   559
98.26   510
98.28   487
98.3    530
98.32   559
98.34   508
98.36   565
98.38   575
98.4    574
98.42   576
98.44   593
98.46   548
98.48   602
98.5    564
98.52   563
98.54   535
98.56   578
98.58   539
98.6    539
98.62   576
98.64   596
98.66   538
98.68   568
98.7    571
98.72   530
98.74   533
98.76   553
98.78   543
98.8    533
98.82   542
98.84   532
98.86   534
98.88   532
98.9    527
98.92   535
98.94   579
98.96   503
98.98   544
99      542
99.02   541
99.04   533
99.06   550
99.08   515
99.1    493
99.12   527
99.14   529
99.16   504
99.18   472
99.2    552
99.22   496
99.24   524
99.26   495
99.28   536
99.3    520
99.32   524
99.34   528
99.36   534
99.38   532
99.4    546
99.42   549
99.44   561
99.46   570
99.48   547
99.5    581
99.52   568
99.54   533
99.56   554
99.58   570
99.6    565
99.62   604
99.64   555
99.66   537
99.68   554
99.7    555
99.72   583
99.74   588
99.76   551
99.78   562
99.8    620
99.82   579
99.84   589
99.86   588
99.88   592
99.9    558
99.92   586
99.94   599
99.96   591
99.98   644
100     626
100.02  641
100.04  686
100.06  658
100.08  675
100.1   666
100.12  675
100.14  669
100.16  703
100.18  641
100.2   696
100.22  686
100.24  657
100.26  643
100.28  651
100.3   679
100.32  646
100.34  592
100.36  621
100.38  669
100.4   677
100.42  625
100.44  633
100.46  636
100.48  634
100.5   634
100.52  665
100.54  650
100.56  623
100.58  655
100.6   639
100.62  659
100.64  664
100.66  671
100.68  675
100.7   714
100.72  675
100.74  779
100.76  776
100.78  876
100.8   968
100.82  1068
100.84  1098
100.86  1176
100.88  1289
100.9   1255
100.92  1196
100.94  1095
100.96  1072
100.98  967
101     900
101.02  879
101.04  819
101.06  800
101.08  860
101.1   846
101.12  829
101.14  924
101.16  917
101.18  998
101.2   1050
101.22  1107
101.24  1133
101.26  1093
101.28  1009
101.3   980
101.32  906
101.34  893
101.36  876
101.38  806
101.4   769
101.42  778
101.44  764
101.46  738
101.48  716
101.5   794
101.52  726
101.54  751
101.56  701
101.58  726
101.6   738
101.62  738
101.64  740
101.66  779
101.68  767
101.7   742
101.72  723
101.74  775
101.76  733
101.78  723
101.8   713
101.82  757
101.84  716
101.86  691
101.88  698
101.9   685
101.92  658
101.94  642
101.96  672
101.98  656
102     634
102.02  655
102.04  630
102.06  617
102.08  623
102.1   563
102.12  609
102.14  635
102.16  581
102.18  566
102.2   663
102.22  647
102.24  627
102.26  636
102.28  588
102.3   640
102.32  589
102.34  602
102.36  607
102.38  589
102.4   606
102.42  611
102.44  564
102.46  574
102.48  585
102.5   575
102.52  559
102.54  638
102.56  582
102.58  580
102.6   586
102.62  565
102.64  566
102.66  624
102.68  584
102.7   560
102.72  581
102.74  546
102.76  582
102.78  626
102.8   575
102.82  555
102.84  596
102.86  570
102.88  535
102.9   535
102.92  541
102.94  534
102.96  573
102.98  545
103     551
103.02  566
103.04  579
103.06  591
103.08  573
103.1   557
103.12  587
103.14  567
103.16  540
103.18  571
103.2   580
103.22  588
103.24  557
103.26  644
103.28  564
103.3   611
103.32  634
103.34  608
103.36  556
103.38  601
103.4   576
103.42  603
103.44  632
103.46  564
103.48  619
103.5   619
103.52  558
103.54  602
103.56  613
103.58  626
103.6   613
103.62  621
103.64  611
103.66  606
103.68  579
103.7   578
103.72  583
103.74  554
103.76  578
103.78  604
103.8   637
103.82  611
103.84  596
103.86  651
103.88  609
103.9   611
103.92  629
103.94  616
103.96  654
103.98  620
104     670
104.02  664
104.04  636
104.06  701
104.08  664
104.1   683
104.12  661
104.14  661
104.16  667
104.18  699
104.2   593
104.22  659
104.24  692
104.26  652
104.28  691
104.3   690
104.32  700
104.34  741
104.36  751
104.38  774
104.4   812
104.42  831
104.44  828
104.46  872
104.48  821
104.5   876
104.52  780
104.54  822
104.56  767
104.58  706
104.6   649
104.62  668
104.64  681
104.66  632
104.68  649
104.7   594
104.72  638
104.74  651
104.76  679
104.78  634
104.8   640
104.82  613
104.84  626
104.86  647
104.88  621
104.9   633
104.92  633
104.94  609
104.96  578
104.98  578
105     577
105.02  527
105.04  557
105.06  522
105.08  508
105.1   512
105.12  497
105.14  538
105.16  522
105.18  547
105.2   520
105.22  516
105.24  536
105.26  529
105.28  531
105.3   489
105.32  548
105.34  559
105.36  550
105.38  542
105.4   554
105.42  541
105.44  576
105.46  550
105.48  514
105.5   525
105.52  597
105.54  557
105.56  598
105.58  569
105.6   578
105.62  605
105.64  607
105.66  613
105.68  636
105.7   655
105.72  674
105.74  637
105.76  676
105.78  670
105.8   668
105.82  683
105.84  673
105.86  697
105.88  682
105.9   661
105.92  640
105.94  714
105.96  660
105.98  681
106     677
106.02  639
106.04  593
106.06  685
106.08  670
106.1   680
106.12  635
106.14  686
106.16  720
106.18  705
106.2   708
106.22  744
106.24  689
106.26  694
106.28  687
106.3   741
106.32  668
106.34  696
106.36  714
106.38  683
106.4   629
106.42  622
106.44  647
106.46  583
106.48  599
106.5   614
106.52  609
106.54  572
106.56  538
106.58  603
106.6   584
106.62  618
106.64  579
106.66  582
106.68  583
106.7   583
106.72  571
106.74  580
106.76  557
106.78  593
106.8   559
106.82  526
106.84  534
106.86  549
106.88  534
106.9   530
106.92  544
106.94  557
106.96  532
106.98  527
107     496
107.02  554
107.04  536
107.06  555
107.08  552
107.1   509
107.12  530
107.14  476
107.16  539
107.18  519
107.2   538
107.22  547
107.24  530
107.26  525
107.28  527
107.3   546
107.32  504
107.34  499
107.36  545
107.38  524
107.4   508
107.42  544
107.44  594
107.46  555
107.48  576
107.5   601
107.52  622
107.54  608
107.56  598
107.58  626
107.6   620
107.62  671
107.64  655
107.66  685
107.68  748
107.7   708
107.72  779
107.74  747
107.76  789
107.78  773
107.8   741
107.82  778
107.84  791
107.86  825
107.88  830
107.9   830
107.92  716
107.94  779
107.96  802
107.98  797
108     728
108.02  779
108.04  809
108.06  801
108.08  746
108.1   716
108.12  816
108.14  789
108.16  782
108.18  787
108.2   778
108.22  763
108.24  762
108.26  773
108.28  740
108.3   798
108.32  798
108.34  751
108.36  706
108.38  713
108.4   706
108.42  703
108.44  708
108.46  700
108.48  757
108.5   712
108.52  679
108.54  761
108.56  735
108.58  673
108.6   723
108.62  684
108.64  699
108.66  694
108.68  645
108.7   662
108.72  694
108.74  653
108.76  676
108.78  654
108.8   685
108.82  650
108.84  683
108.86  640
108.88  666
108.9   633
108.92  674
108.94  686
108.96  654
108.98  706
109     728
109.02  756
109.04  694
109.06  772
109.08  714
109.1   734
109.12  734
109.14  732
109.16  727
109.18  662
109.2   706
109.22  672
109.24  678
109.26  647
109.28  622
109.3   637
109.32  636
109.34  610
109.36  668
109.38  619
109.4   622
109.42  643
109.44  627
109.46  609
109.48  625
109.5   651
109.52  700
109.54  637
109.56  666
109.58  627
109.6   663
109.62  628
109.64  609
109.66  621
109.68  591
109.7   576
109.72  564
109.74  585
109.76  560
109.78  576
109.8   528
109.82  546
109.84  587
109.86  570
109.88  558
109.9   618
109.92  613
109.94  539
109.96  562
109.98  608
110     595
110.02  583
110.04  596
110.06  550
110.08  647
110.1   587
110.12  598
110.14  591
110.16  624
110.18  604
110.2   566
110.22  618
110.24  548
110.26  608
110.28  609
110.3   600
110.32  601
110.34  625
110.36  560
110.38  573
110.4   533
110.42  550
110.44  573
110.46  591
110.48  584
110.5   604
110.52  624
110.54  584
110.56  581
110.58  578
110.6   613
110.62  590
110.64  629
110.66  616
110.68  601
110.7   678
110.72  658
110.74  644
110.76  670
110.78  623
110.8   667
110.82  686
110.84  630
110.86  650
110.88  619
110.9   654
110.92  641
110.94  630
110.96  645
110.98  659
111     646
111.02  650
111.04  647
111.06  735
111.08  667
111.1   740
111.12  673
111.14  647
111.16  729
111.18  733
111.2   686
111.22  706
111.24  652
111.26  722
111.28  669
111.3   663
111.32  615
111.34  692
111.36  658
111.38  681
111.4   665
111.42  690
111.44  679
111.46  720
111.48  714
111.5   677
111.52  685
111.54  754
111.56  777
111.58  747
111.6   724
111.62  735
111.64  767
111.66  726
111.68  729
111.7   740
111.72  745
111.74  708
111.76  692
111.78  731
111.8   749
111.82  683
111.84  738
111.86  685
111.88  703
111.9   703
111.92  770
111.94  740
111.96  752
111.98  732
112     751
112.02  698
112.04  746
112.06  752
112.08  717
112.1   711
112.12  704
112.14  736
112.16  674
112.18  729
112.2   711
112.22  686
112.24  768
112.26  733
112.28  719
112.3   738
112.32  707
112.34  702
112.36  734
112.38  708
112.4   680
112.42  718
112.44  729
112.46  712
112.48  720
112.5   676
112.52  736
112.54  729
112.56  732
112.58  705
112.6   756
112.62  769
112.64  767
112.66  773
112.68  805
112.7   807
112.72  841
112.74  822
112.76  826
112.78  878
112.8   862
112.82  820
112.84  847
112.86  851
112.88  805
112.9   825
112.92  833
112.94  743
112.96  689
112.98  786
113     796
113.02  797
113.04  807
113.06  842
113.08  857
113.1   894
113.12  977
113.14  905
113.16  917
113.18  980
113.2   993
113.22  1007
113.24  927
113.26  993
113.28  875
113.3   902
113.32  851
113.34  814
113.36  744
113.38  812
113.4   733
113.42  781
113.44  698
113.46  671
113.48  669
113.5   665
113.52  715
113.54  724
113.56  718
113.58  742
113.6   750
113.62  739
113.64  722
113.66  763
113.68  742
113.7   694
113.72  683
113.74  716
113.76  690
113.78  696
113.8   665
113.82  608
113.84  636
113.86  579
113.88  568
113.9   579
113.92  586
113.94  601
113.96  554
113.98  564
114     579
114.02  581
114.04  587
114.06  542
114.08  549
114.1   614
114.12  579
114.14  594
114.16  564
114.18  569
114.2   599
114.22  637
114.24  615
114.26  593
114.28  595
114.3   644
114.32  635
114.34  657
114.36  678
114.38  657
114.4   659
114.42  710
114.44  698
114.46  696
114.48  711
114.5   732
114.52  732
114.54  742
114.56  725
114.58  724
114.6   754
114.62  706
114.64  712
114.66  730
114.68  698
114.7   731
114.72  727
114.74  652
114.76  695
114.78  680
114.8   745
114.82  726
114.84  684
114.86  713
114.88  713
114.9   742
114.92  714
114.94  671
114.96  708
114.98  682
115     713
115.02  647
115.04  694
115.06  677
115.08  639
115.1   572
115.12  660
115.14  629
115.16  653
115.18  599
115.2   621
115.22  638
115.24  610
115.26  624
115.28  649
115.3   626
115.32  620
115.34  596
115.36  622
115.38  587
115.4   603
115.42  594
115.44  602
115.46  583
115.48  605
115.5   633
115.52  631
115.54  577
115.56  595
115.58  585
115.6   585
115.62  581
115.64  592
115.66  590
115.68  576
115.7   553
115.72  558
115.74  606
115.76  587
115.78  640
115.8   635
115.82  610
115.84  616
115.86  624
115.88  606
115.9   607
115.92  639
115.94  661
115.96  633
115.98  593
116     648
116.02  680
116.04  647
116.06  574
116.08  588
116.1   602
116.12  613
116.14  638
116.16  604
116.18  615
116.2   588
116.22  561
116.24  593
116.26  610
116.28  603
116.3   579
116.32  583
116.34  618
116.36  615
116.38  628
116.4   629
116.42  546
116.44  601
116.46  562
116.48  580
116.5   589
116.52  609
116.54  577
116.56  594
116.58  576
116.6   587
116.62  585
116.64  634
116.66  601
116.68  609
116.7   647
116.72  658
116.74  606
116.76  600
116.78  626
116.8   666
116.82  654
116.84  655
116.86  674
116.88  716
116.9   691
116.92  677
116.94  741
116.96  673
116.98  694
117     727
117.02  668
117.04  679
117.06  637
117.08  667
117.1   671
117.12  664
117.14  619
117.16  655
117.18  660
117.2   689
117.22  692
117.24  663
117.26  670
117.28  704
117.3   677
117.32  733
117.34  732
117.36  731
117.38  676
117.4   753
117.42  730
117.44  736
117.46  709
117.48  737
117.5   730
117.52  737
117.54  748
117.56  710
117.58  730
117.6   707
117.62  731
117.64  735
117.66  738
117.68  717
117.7   750
117.72  700
117.74  742
117.76  673
117.78  736
117.8   671
117.82  689
117.84  677
117.86  635
117.88  705
117.9   639
117.92  646
117.94  608
117.96  612
117.98  625
118     623
118.02  659
118.04  602
118.06  639
118.08  616
118.1   611
118.12  635
118.14  657
118.16  615
118.18  578
118.2   597
118.22  616
118.24  627
118.26  518
118.28  581
118.3   555
118.32  641
118.34  570
118.36  576
118.38  565
118.4   619
118.42  594
118.44  551
118.46  586
118.48  580
118.5   612
118.52  582
118.54  571
118.56  619
118.58  582
118.6   554
118.62  518
118.64  555
118.66  581
118.68  575
118.7   532
118.72  577
118.74  526
118.76  549
118.78  567
118.8   566
118.82  582
118.84  512
118.86  572
118.88  579
118.9   539
118.92  554
118.94  582
118.96  637
118.98  581
119     581
119.02  609
119.04  584
119.06  614
119.08  580
119.1   642
119.12  609
119.14  625
119.16  634
119.18  596
119.2   603
119.22  654
119.24  619
119.26  618
119.28  616
119.3   588
119.32  619
119.34  622
119.36  577
119.38  635
119.4   585
119.42  638
119.44  579
119.46  624
119.48  656
119.5   626
119.52  654
119.54  673
119.56  665
119.58  689
119.6   647
119.62  668
119.64  669
119.66  714
119.68  667
119.7   650
119.72  678
119.74  663
119.76  645
119.78  696
119.8   663
119.82  664
119.84  621
119.86  643
119.88  599
119.9   653
119.92  639
119.94  665
119.96  576
119.98  636
120     614
120.02  619
120.04  607
