10      1438
10.02   1429
10.04   1398
10.06   1327
10.08   1421
10.1    1407
10.12   1465
10.14   1410
10.16   1416
10.18   1427
10.2    1397
10.22   1396
10.24   1373
10.26   1397
10.28   1393
10.3    1366
10.32   1402
10.34   1338
10.36   1340
10.38   1312
10.4    1391
10.42   1337
10.44   1352
10.46   1339
10.48   1378
10.5    1386
10.52   1430
10.54   1283
10.56   1351
10.58   1303
10.6    1388
10.62   1343
10.64   1333
10.66   1333
10.68   1289
10.7    1324
10.72   1291
10.74   1315
10.76   1380
10.78   1286
10.8    1353
10.82   1282
10.84   1280
10.86   1296
10.88   1381
10.9    1287
10.92   1293
10.94   1263
10.96   1259
10.98   1273
11      1312
11.02   1277
11.04   1236
11.06   1297
11.08   1227
11.1    1294
11.12   1238
11.14   1286
11.16   1290
11.18   1331
11.2    1271
11.22   1309
11.24   1368
11.26   1381
11.28   1467
11.3    1412
11.32   1445
11.34   1491
11.36   1610
11.38   1481
11.4    1530
11.42   1511
11.44   1674
11.46   1678
11.48   1696
11.5    1862
11.52   1913
11.54   2008
11.56   2088
11.58   2303
11.6    2353
11.62   2574
11.64   2868
11.66   3068
11.68   3430
11.7    3840
11.72   4175
11.74   4706
11.76   5233
11.78   5718
11.8    5923
11.82   6568
11.84   6946
11.86   7280
11.88   7504
11.9    7890
11.92   8061
11.94   8191
11.96   8056
11.98   8256
12      8038
12.02   8214
12.04   7580
12.06   6986
12.08   6616
12.1    5633
12.12   5001
12.14   4313
12.16   3488
12.18   2882
12.2    2432
12.22   2026
12.24   1694
12.26   1600
12.28   1542
12.3    1578
12.32   1551
12.34   1615
12.36   1622
12.38   1696
12.4    1730
12.42   1775
12.44   1952
12.46   2148
12.48   2156
12.5    2410
12.52   2531
12.54   2715
12.56   3031
12.58   3137
12.6    3451
12.62   3723
12.64   4090
12.66   4429
12.68   4903
12.7    5336
12.72   6121
12.74   7004
12.76   7786
12.78   8240
12.8    9463
12.82   10155
12.84   10710
12.86   11488
12.88   12238
12.9    12698
12.92   12899
12.94   13208
12.96   13392
12.98   13188
13      12968
13.02   12493
13.04   11755
13.06   10903
13.08   9591
13.1    8508
13.12   7387
13.14   6163
13.16   5067
13.18   3974
13.2    3300
13.22   2779
13.24   2353
13.26   2016
13.28   1844
13.3    1779
13.32   1655
13.34   1550
13.36   1529
13.38   1520
13.4    1442
13.42   1452
13.44   1417
13.46   1431
13.48   1355
13.5    1341
13.52   1307
13.54   1311
13.56   1295
13.58   1292
13.6    1334
13.62   1298
13.64   1252
13.66   1284
13.68   1200
13.7    1248
13.72   1216
13.74   1237
13.76   1127
13.78   1218
13.8    1248
13.82   1182
13.84   1169
13.86   1153
13.88   1130
13.9    1193
13.92   1220
13.94   1185
13.96   1154
13.98   1187
14      1163
14.02   1140
14.04   1132
14.06   1215
14.08   1167
14.1    1123
14.12   1231
14.14   1161
14.16   1136
14.18   1131
14.2    1183
14.22   1177
14.24   1155
14.26   1218
14.28   1163
14.3    1215
14.32   1182
14.34   1207
14.36   1233
14.38   1277
14.4    1228
14.42   1227
14.44   1343
14.46   1346
14.48   1359
14.5    1355
14.52   1405
14.54   1483
14.56   1553
14.58   1523
14.6    1679
14.62   1728
14.64   1953
14.66   2050
14.68   2253
14.7    2490
14.72   2587
14.74   2924
14.76   3227
14.78   3573
14.8    3980
14.82   4313
14.84   4974
14.86   5464
14.88   6107
14.9    6696
14.92   7335
14.94   7824
14.96   8513
14.98   8751
15      9581
15.02   9633
15.04   10034
15.06   9845
15.08   9556
15.1    9369
15.12   8855
15.14   8381
15.16   7530
15.18   6779
15.2    5726
15.22   4706
15.24   3963
15.26   3204
15.28   2459
15.3    1955
15.32   1757
15.34   1414
15.36   1291
15.38   1239
15.4    1179
15.42   1084
15.44   1156
15.46   1052
15.48   1134
15.5    1131
15.52   1157
15.54   1217
15.56   1231
15.58   1238
15.6    1340
15.62   1419
15.64   1387
15.66   1499
15.68   1642
15.7    1755
15.72   1855
15.74   2117
15.76   2276
15.78   2526
15.8    2511
15.82   2813
15.84   2871
15.86   2998
15.88   3147
15.9    3153
15.92   3201
15.94   3132
15.96   3060
15.98   2934
16      2690
16.02   2528
16.04   2376
16.06   2076
16.08   1905
16.1    1633
16.12   1512
16.14   1312
16.16   1303
16.18   1119
16.2    1149
16.22   1032
16.24   1015
16.26   945
16.28   947
16.3    1007
16.32   1066
16.34   986
16.36   1043
16.38   952
16.4    988
16.42   971
16.44   909
16.46   989
16.48   971
16.5    972
16.52   933
16.54   945
16.56   922
16.58   910
16.6    961
16.62   993
16.64   928
16.66   958
16.68   974
16.7    964
16.72   953
16.74   953
16.76   944
16.78   983
16.8    959
16.82   856
16.84   977
16.86   970
16.88   917
16.9    922
16.92   965
16.94   1004
16.96   1002
16.98   981
17      1085
17.02   973
17.04   1067
17.06   1091
17.08   1041
17.1    1126
17.12   1093
17.14   1148
17.16   1189
17.18   1286
17.2    1248
17.22   1372
17.24   1499
17.26   1548
17.28   1695
17.3    1816
17.32   1971
17.34   2138
17.36   2345
17.38   2671
17.4    2962
17.42   3326
17.44   3715
17.46   4253
17.48   4603
17.5    5228
17.52   5682
17.54   6244
17.56   6799
17.58   7140
17.6    7418
17.62   7560
17.64   7704
17.66   7516
17.68   7263
17.7    6833
17.72   6084
17.74   5412
17.76   4694
17.78   3997
17.8    3248
17.82   2775
17.84   2271
17.86   1955
17.88   1772
17.9    1694
17.92   1679
17.94   1702
17.96   1734
17.98   1938
18      2131
18.02   2433
18.04   2779
18.06   3294
18.08   3914
18.1    4408
18.12   4779
18.14   5676
18.16   6818
18.18   7845
18.2    9292
18.22   10691
18.24   12265
18.26   13737
18.28   15314
18.3    17101
18.32   18887
18.34   20154
18.36   21812
18.38   22979
18.4    23525
18.42   23313
18.44   22218
18.46   20652
18.48   17950
18.5    15508
18.52   12478
18.54   9541
18.56   7049
18.58   5217
18.6    3742
18.62   2552
18.64   1790
18.66   1361
18.68   1197
18.7    1051
18.72   1011
18.74   913
18.76   951
18.78   850
18.8    882
18.82   848
18.84   907
18.86   863
18.88   836
18.9    818
18.92   791
18.94   814
18.96   811
18.98   807
19      790
19.02   826
19.04   841
19.06   742
19.08   786
19.1    771
19.12   853
19.14   761
19.16   806
19.18   763
19.2    790
19.22   770
19.24   796
19.26   771
19.28   750
19.3    762
19.32   780
19.34   767
19.36   751
19.38   721
19.4    751
19.42   811
19.44   791
19.46   755
19.48   763
19.5    721
19.52   736
19.54   749
19.56   701
19.58   762
19.6    817
19.62   716
19.64   741
19.66   757
19.68   763
19.7    775
19.72   731
19.74   774
19.76   754
19.78   784
19.8    753
19.82   726
19.84   753
19.86   752
19.88   736
19.9    727
19.92   754
19.94   718
19.96   694
19.98   775
20      745
20.02   781
20.04   780
20.06   759
20.08   781
20.1    737
20.12   743
20.14   741
20.16   724
20.18   765
20.2    763
20.22   741
20.24   721
20.26   754
20.28   711
20.3    756
20.32   727
20.34   731
20.36   714
20.38   759
20.4    693
20.42   706
20.44   728
20.46   726
20.48   738
20.5    789
20.52   723
20.54   759
20.56   755
20.58   731
20.6    716
20.62   742
20.64   676
20.66   721
20.68   817
20.7    763
20.72   754
20.74   723
20.76   732
20.78   748
20.8    777
20.82   710
20.84   750
20.86   733
20.88   759
20.9    745
20.92   793
20.94   691
20.96   728
20.98   753
21      762
21.02   751
21.04   733
21.06   753
21.08   755
21.1    734
21.12   788
21.14   774
21.16   792
21.18   727
21.2    768
21.22   801
21.24   731
21.26   777
21.28   778
21.3    823
21.32   775
21.34   857
21.36   808
21.38   845
21.4    850
21.42   825
21.44   849
21.46   818
21.48   859
21.5    872
21.52   917
21.54   934
21.56   994
21.58   945
21.6    1042
21.62   1059
21.64   1135
21.66   1178
21.68   1319
21.7    1341
21.72   1415
21.74   1561
21.76   1769
21.78   1954
21.8    2199
21.82   2437
21.84   2897
21.86   3292
21.88   3650
21.9    4355
21.92   4921
21.94   5750
21.96   6645
21.98   7499
22      8615
22.02   9436
22.04   10160
22.06   10697
22.08   10925
22.1    11099
22.12   10722
22.14   10471
22.16   9842
22.18   9064
22.2    8227
22.22   7185
22.24   6140
22.26   5246
22.28   4504
22.3    3748
22.32   3423
22.34   3155
22.36   3035
22.38   3058
22.4    3259
22.42   3473
22.44   3699
22.46   4186
22.48   4626
22.5    5009
22.52   5488
22.54   5820
22.56   6011
22.58   6401
22.6    6417
22.62   6319
22.64   6047
22.66   5563
22.68   4961
22.7    4519
22.72   3840
22.74   3347
22.76   2768
22.78   2350
22.8    2016
22.82   1654
22.84   1562
22.86   1316
22.88   1214
22.9    1158
22.92   1090
22.94   1034
22.96   1065
22.98   1019
23      1012
23.02   994
23.04   914
23.06   993
23.08   918
23.1    927
23.12   919
23.14   906
23.16   899
23.18   947
23.2    875
23.22   940
23.24   934
23.26   909
23.28   932
23.3    915
23.32   936
23.34   953
23.36   930
23.38   927
23.4    992
23.42   1040
23.44   985
23.46   1024
23.48   1027
23.5    1116
23.52   1117
23.54   1165
23.56   1273
23.58   1333
23.6    1446
23.62   1597
23.64   1670
23.66   1944
23.68   2180
23.7    2348
23.72   2726
23.74   2964
23.76   3402
23.78   3672
23.8    3986
23.82   4278
23.84   4645
23.86   4704
23.88   4849
23.9    4843
23.92   4877
23.94   4946
23.96   4995
23.98   5292
24      5486
24.02   5722
24.04   6177
24.06   6539
24.08   6976
24.1    7320
24.12   7808
24.14   7995
24.16   8159
24.18   7867
24.2    7438
24.22   6727
24.24   5860
24.26   5115
24.28   4122
24.3    3427
24.32   2766
24.34   2164
24.36   1683
24.38   1368
24.4    1178
24.42   963
24.44   950
24.46   970
24.48   807
24.5    816
24.52   847
24.54   807
24.56   814
24.58   839
24.6    784
24.62   794
24.64   827
24.66   804
24.68   747
24.7    783
24.72   789
24.74   779
24.76   798
24.78   836
24.8    837
24.82   857
24.84   787
24.86   867
24.88   811
24.9    817
24.92   797
24.94   904
24.96   908
24.98   910
25      906
25.02   949
25.04   899
25.06   986
25.08   960
25.1    995
25.12   1037
25.14   1055
25.16   1165
25.18   1176
25.2    1290
25.22   1295
25.24   1475
25.26   1578
25.28   1846
25.3    1912
25.32   2167
25.34   2547
25.36   2960
25.38   3463
25.4    3925
25.42   4712
25.44   5487
25.46   6247
25.48   7284
25.5    8189
25.52   9217
25.54   10355
25.56   10877
25.58   11313
25.6    11592
25.62   11760
25.64   11793
25.66   11517
25.68   11596
25.7    11206
25.72   11003
25.74   10921
25.76   10507
25.78   10189
25.8    9752
25.82   9048
25.84   8586
25.86   8110
25.88   7361
25.9    6426
25.92   5922
25.94   5442
25.96   5163
25.98   4655
26      4596
26.02   4783
26.04   4788
26.06   5390
26.08   5901
26.1    6226
26.12   6804
26.14   7036
26.16   7230
26.18   7200
26.2    7237
26.22   6793
26.24   6240
26.26   5685
26.28   5208
26.3    4394
26.32   3712
26.34   3086
26.36   2543
26.38   1971
26.4    1767
26.42   1480
26.44   1321
26.46   1127
26.48   1035
26.5    1060
26.52   899
26.54   910
26.56   841
26.58   856
26.6    846
26.62   817
26.64   816
26.66   771
26.68   808
26.7    812
26.72   687
26.74   781
26.76   776
26.78   741
26.8    836
26.82   832
26.84   782
26.86   814
26.88   833
26.9    888
26.92   911
26.94   973
26.96   1055
26.98   1193
27      1300
27.02   1484
27.04   1666
27.06   1877
27.08   2139
27.1    2500
27.12   2815
27.14   3175
27.16   3493
27.18   3807
27.2    4082
27.22   4188
27.24   4251
27.26   4174
27.28   4084
27.3    3674
27.32   3460
27.34   3160
27.36   2698
27.38   2508
27.4    2129
27.42   1938
27.44   1727
27.46   1530
27.48   1447
27.5    1392
27.52   1425
27.54   1340
27.56   1481
27.58   1432
27.6    1477
27.62   1556
27.64   1672
27.66   1773
27.68   1939
27.7    2047
27.72   2300
27.74   2516
27.76   2598
27.78   2723
27.8    2713
27.82   2677
27.84   2669
27.86   2436
27.88   2171
27.9    1871
27.92   1753
27.94   1492
27.96   1343
27.98   1151
28      994
28.02   924
28.04   853
28.06   765
28.08   761
28.1    706
28.12   702
28.14   691
28.16   703
28.18   673
28.2    667
28.22   636
28.24   662
28.26   613
28.28   645
28.3    617
28.32   644
28.34   649
28.36   602
28.38   597
28.4    594
28.42   601
28.44   600
28.46   661
28.48   632
28.5    609
28.52   606
28.54   597
28.56   603
28.58   668
28.6    582
28.62   573
28.64   579
28.66   618
28.68   554
28.7    605
28.72   583
28.74   591
28.76   572
28.78   595
28.8    585
28.82   580
28.84   633
28.86   623
28.88   622
28.9    577
28.92   591
28.94   599
28.96   556
28.98   583
29      650
29.02   588
29.04   600
29.06   584
29.08   548
29.1    623
29.12   612
29.14   641
29.16   620
29.18   630
29.2    610
29.22   628
29.24   615
29.26   620
29.28   623
29.3    564
29.32   643
29.34   621
29.36   628
29.38   632
29.4    572
29.42   608
29.44   617
29.46   614
29.48   616
29.5    672
29.52   626
29.54   605
29.56   618
29.58   602
29.6    609
29.62   646
29.64   634
29.66   618
29.68   637
29.7    599
29.72   692
29.74   602
29.76   638
29.78   640
29.8    634
29.82   683
29.84   656
29.86   699
29.88   696
29.9    681
29.92   721
29.94   717
29.96   701
29.98   773
30      731
30.02   768
30.04   783
30.06   818
30.08   816
30.1    931
30.12   967
30.14   1047
30.16   1194
30.18   1275
30.2    1463
30.22   1738
30.24   1958
30.26   2233
30.28   2617
30.3    2843
30.32   3080
30.34   3328
30.36   3735
30.38   4015
30.4    4409
30.42   4616
30.44   4967
30.46   5141
30.48   5405
30.5    5539
30.52   5640
30.54   5772
30.56   5611
30.58   5498
30.6    5213
30.62   4909
30.64   4515
30.66   4066
30.68   3612
30.7    3336
30.72   2986
30.74   2577
30.76   2339
30.78   2118
30.8    1849
30.82   1718
30.84   1530
30.86   1413
30.88   1262
30.9    1182
30.92   1119
30.94   991
30.96   1032
30.98   941
31      954
31.02   941
31.04   909
31.06   981
31.08   936
31.1    869
31.12   939
31.14   977
31.16   966
31.18   985
31.2    1006
31.22   1024
31.24   1048
31.26   1084
31.28   1052
31.3    1197
31.32   1219
31.34   1326
31.36   1443
31.38   1548
31.4    1750
31.42   1948
31.44   2266
31.46   2498
31.48   2939
31.5    3361
31.52   3810
31.54   4627
31.56   5530
31.58   6237
31.6    7278
31.62   8475
31.64   9400
31.66   10323
31.68   11197
31.7    11638
31.72   11813
31.74   11891
31.76   11542
31.78   11447
31.8    10727
31.82   10310
31.84   9236
31.86   8478
31.88   7864
31.9    7317
31.92   6964
31.94   6677
31.96   6490
31.98   6488
32      6725
32.02   6887
32.04   7360
32.06   7650
32.08   7912
32.1    8423
32.12   8883
32.14   9268
32.16   9745
32.18   9828
32.2    9726
32.22   9360
32.24   9088
32.26   8209
32.28   7468
32.3    6632
32.32   5743
32.34   4883
32.36   4046
32.38   3433
32.4    2922
32.42   2388
32.44   2091
32.46   1731
32.48   1579
32.5    1387
32.52   1304
32.54   1212
32.56   1167
32.58   1144
32.6    1028
32.62   1023
32.64   1004
32.66   941
32.68   941
32.7    924
32.72   929
32.74   869
32.76   896
32.78   884
32.8    859
32.82   881
32.84   854
32.86   867
32.88   867
32.9    894
32.92   871
32.94   928
32.96   972
32.98   967
33      1031
33.02   1064
33.04   1093
33.06   1237
33.08   1333
33.1    1423
33.12   1466
33.14   1734
33.16   1778
33.18   1976
33.2    2113
33.22   2231
33.24   2280
33.26   2269
33.28   2282
33.3    2289
33.32   2163
33.34   2056
33.36   1769
33.38   1662
33.4    1431
33.42   1256
33.44   1217
33.46   1009
33.48   1051
33.5    911
33.52   844
33.54   772
33.56   771
33.58   793
33.6    736
33.62   699
33.64   692
33.66   718
33.68   705
33.7    702
33.72   726
33.74   731
33.76   683
33.78   722
33.8    663
33.82   674
33.84   677
33.86   679
33.88   703
33.9    663
33.92   668
33.94   687
33.96   691
33.98   645
34      685
34.02   670
34.04   658
34.06   642
34.08   663
34.1    657
34.12   665
34.14   691
34.16   737
34.18   688
34.2    719
34.22   775
34.24   789
34.26   842
34.28   832
34.3    879
34.32   993
34.34   1090
34.36   1153
34.38   1262
34.4    1434
34.42   1493
34.44   1657
34.46   1739
34.48   1846
34.5    1843
34.52   1884
34.54   1795
34.56   1735
34.58   1678
34.6    1523
34.62   1362
34.64   1281
34.66   1177
34.68   1142
34.7    944
34.72   888
34.74   849
34.76   806
34.78   746
34.8    781
34.82   764
34.84   754
34.86   770
34.88   768
34.9    778
34.92   790
34.94   782
34.96   834
34.98   829
35      932
35.02   958
35.04   1018
35.06   1129
35.08   1147
35.1    1276
35.12   1356
35.14   1448
35.16   1510
35.18   1519
35.2    1627
35.22   1621
35.24   1571
35.26   1521
35.28   1431
35.3    1266
35.32   1194
35.34   1134
35.36   1139
35.38   1007
35.4    976
35.42   946
35.44   915
35.46   911
35.48   866
35.5    987
35.52   1033
35.54   1124
35.56   1150
35.58   1262
35.6    1381
35.62   1538
35.64   1692
35.66   1853
35.68   1958
35.7    2090
35.72   2163
35.74   2328
35.76   2373
35.78   2315
35.8    2316
35.82   2213
35.84   2152
35.86   2096
35.88   2011
35.9    1830
35.92   1834
35.94   1725
35.96   1769
35.98   1624
36      1645
36.02   1537
36.04   1467
36.06   1352
36.08   1311
36.1    1231
36.12   1121
36.14   1123
36.16   1125
36.18   1007
36.2    954
36.22   890
36.24   898
36.26   982
36.28   1007
36.3    1023
36.32   1043
36.34   1138
36.36   1193
36.38   1228
36.4    1283
36.42   1438
36.44   1490
36.46   1611
36.48   1596
36.5    1739
36.52   1741
36.54   1804
36.56   1789
36.58   1739
36.6    1673
36.62   1751
36.64   1650
36.66   1538
36.68   1487
36.7    1396
36.72   1387
36.74   1306
36.76   1344
36.78   1344
36.8    1413
36.82   1392
36.84   1593
36.86   1712
36.88   2016
36.9    2232
36.92   2594
36.94   2910
36.96   3267
36.98   3620
37      4078
37.02   4441
37.04   4689
37.06   4772
37.08   4964
37.1    5081
37.12   4869
37.14   4898
37.16   4648
37.18   4389
37.2    4192
37.22   4216
37.24   4049
37.26   3935
37.28   3998
37.3    3875
37.32   3803
37.34   3592
37.36   3360
37.38   3201
37.4    2943
37.42   2674
37.44   2337
37.46   1938
37.48   1794
37.5    1681
37.52   1570
37.54   1538
37.56   1635
37.58   1726
37.6    2024
37.62   2459
37.64   2870
37.66   3456
37.68   4206
37.7    4867
37.72   5538
37.74   5887
37.76   6318
37.78   6340
37.8    6297
37.82   6077
37.84   5938
37.86   5631
37.88   5023
37.9    4576
37.92   4100
37.94   3679
37.96   3519
37.98   3214
38      3182
38.02   3198
38.04   3213
38.06   3160
38.08   3275
38.1    3452
38.12   3323
38.14   3208
38.16   3131
38.18   3045
38.2    2686
38.22   2554
38.24   2409
38.26   2228
38.28   2089
38.3    1980
38.32   1985
38.34   1874
38.36   1888
38.38   1982
38.4    2128
38.42   2236
38.44   2321
38.46   2380
38.48   2618
38.5    2710
38.52   2686
38.54   2813
38.56   2632
38.58   2618
38.6    2481
38.62   2231
38.64   2036
38.66   1881
38.68   1700
38.7    1521
38.72   1389
38.74   1248
38.76   1115
38.78   1030
38.8    920
38.82   838
38.84   782
38.86   775
38.88   796
38.9    719
38.92   673
38.94   666
38.96   670
38.98   691
39      703
39.02   667
39.04   675
39.06   703
39.08   688
39.1    719
39.12   725
39.14   719
39.16   746
39.18   888
39.2    941
39.22   1042
39.24   1105
39.26   1138
39.28   1209
39.3    1241
39.32   1268
39.34   1304
39.36   1295
39.38   1264
39.4    1183
39.42   1209
39.44   1144
39.46   1145
39.48   1138
39.5    1068
39.52   1088
39.54   1167
39.56   1198
39.58   1233
39.6    1302
39.62   1371
39.64   1477
39.66   1509
39.68   1560
39.7    1508
39.72   1491
39.74   1440
39.76   1478
39.78   1458
39.8    1436
39.82   1412
39.84   1434
39.86   1406
39.88   1515
39.9    1598
39.92   1575
39.94   1669
39.96   1696
39.98   1737
40      1784
40.02   1755
40.04   1634
40.06   1538
40.08   1518
40.1    1379
40.12   1247
40.14   1197
40.16   1069
40.18   1086
40.2    955
40.22   928
40.24   953
40.26   962
40.28   902
40.3    926
40.32   1009
40.34   1049
40.36   1118
40.38   1182
40.4    1178
40.42   1214
40.44   1185
40.46   1248
40.48   1300
40.5    1203
40.52   1119
40.54   1102
40.56   1057
40.58   1014
40.6    985
40.62   918
40.64   933
40.66   907
40.68   883
40.7    878
40.72   890
40.74   906
40.76   1010
40.78   1030
40.8    1076
40.82   1056
40.84   1130
40.86   1037
40.88   1084
40.9    1076
40.92   1197
40.94   1147
40.96   1195
40.98   1153
41      1239
41.02   1342
41.04   1583
41.06   1728
41.08   1989
41.1    2372
41.12   2619
41.14   2915
41.16   3291
41.18   3599
41.2    4087
41.22   4133
41.24   4251
41.26   4208
41.28   4117
41.3    3979
41.32   3709
41.34   3358
41.36   3164
41.38   2821
41.4    2624
41.42   2437
41.44   2379
41.46   2303
41.48   2320
41.5    2425
41.52   2514
41.54   2783
41.56   2884
41.58   2905
41.6    3019
41.62   2936
41.64   2965
41.66   2892
41.68   2800
41.7    2719
41.72   2595
41.74   2407
41.76   2274
41.78   2074
41.8    2084
41.82   1950
41.84   1942
41.86   1776
41.88   1854
41.9    1784
41.92   1695
41.94   1649
41.96   1555
41.98   1453
42      1411
42.02   1253
42.04   1235
42.06   1154
42.08   1089
42.1    932
42.12   980
42.14   910
42.16   852
42.18   876
42.2    851
42.22   926
42.24   839
42.26   870
42.28   900
42.3    937
42.32   953
42.34   996
42.36   1065
42.38   1096
42.4    1227
42.42   1267
42.44   1376
42.46   1523
42.48   1607
42.5    1801
42.52   1977
42.54   2066
42.56   2256
42.58   2529
42.6    2797
42.62   2968
42.64   3057
42.66   3169
42.68   3223
42.7    3304
42.72   3301
42.74   3318
42.76   3282
42.78   3104
42.8    3029
42.82   2761
42.84   2720
42.86   2402
42.88   2253
42.9    2075
42.92   1868
42.94   1721
42.96   1634
42.98   1569
43      1550
43.02   1497
43.04   1628
43.06   1625
43.08   1804
43.1    1878
43.12   2100
43.14   2275
43.16   2398
43.18   2451
43.2    2625
43.22   2644
43.24   2609
43.26   2638
43.28   2601
43.3    2438
43.32   2220
43.34   2099
43.36   1945
43.38   1785
43.4    1707
43.42   1542
43.44   1522
43.46   1474
43.48   1309
43.5    1393
43.52   1304
43.54   1372
43.56   1282
43.58   1211
43.6    1148
43.62   1129
43.64   1096
43.66   1050
43.68   986
43.7    885
43.72   889
43.74   879
43.76   839
43.78   752
43.8    767
43.82   707
43.84   699
43.86   748
43.88   812
43.9    669
43.92   706
43.94   784
43.96   792
43.98   829
44      893
44.02   888
44.04   910
44.06   916
44.08   935
44.1    892
44.12   953
44.14   913
44.16   977
44.18   915
44.2    877
44.22   863
44.24   841
44.26   851
44.28   815
44.3    731
44.32   764
44.34   769
44.36   781
44.38   736
44.4    723
44.42   700
44.44   701
44.46   720
44.48   683
44.5    687
44.52   726
44.54   696
44.56   704
44.58   733
44.6    783
44.62   756
44.64   829
44.66   867
44.68   871
44.7    951
44.72   993
44.74   1024
44.76   1112
44.78   1182
44.8    1258
44.82   1214
44.84   1397
44.86   1412
44.88   1436
44.9    1566
44.92   1600
44.94   1736
44.96   1760
44.98   1762
45      1887
45.02   1891
45.04   1925
45.06   1988
45.08   2095
45.1    1967
45.12   1921
45.14   1854
45.16   1746
45.18   1764
45.2    1686
45.22   1497
45.24   1398
45.26   1318
45.28   1218
45.3    1121
45.32   979
45.34   1015
45.36   920
45.38   923
45.4    873
45.42   853
45.44   885
45.46   834
45.48   822
45.5    838
45.52   801
45.54   833
45.56   885
45.58   814
45.6    877
45.62   915
45.64   995
45.66   1022
45.68   1149
45.7    1136
45.72   1221
45.74   1309
45.76   1372
45.78   1356
45.8    1458
45.82   1459
45.84   1448
45.86   1394
45.88   1476
45.9    1436
45.92   1455
45.94   1447
45.96   1440
45.98   1401
46      1401
46.02   1397
46.04   1376
46.06   1409
46.08   1386
46.1    1343
46.12   1307
46.14   1260
46.16   1208
46.18   1243
46.2    1165
46.22   1127
46.24   1114
46.26   1119
46.28   1195
46.3    1203
46.32   1250
46.34   1417
46.36   1486
46.38   1778
46.4    1971
46.42   2177
46.44   2334
46.46   2523
46.48   2678
46.5    2802
46.52   2916
46.54   3001
46.56   3095
46.58   2932
46.6    2770
46.62   2560
46.64   2321
46.66   2061
46.68   1865
46.7    1615
46.72   1491
46.74   1288
46.76   1093
46.78   999
46.8    876
46.82   806
46.84   764
46.86   683
46.88   674
46.9    678
46.92   665
46.94   623
46.96   635
46.98   643
47      650
47.02   648
47.04   666
47.06   687
47.08   680
47.1    714
47.12   715
47.14   751
47.16   812
47.18   811
47.2    827
47.22   884
47.24   853
47.26   858
47.28   853
47.3    855
47.32   840
47.34   799
47.36   726
47.38   734
47.4    728
47.42   679
47.44   654
47.46   644
47.48   571
47.5    602
47.52   597
47.54   602
47.56   578
47.58   566
47.6    589
47.62   585
47.64   554
47.66   554
47.68   567
47.7    548
47.72   596
47.74   562
47.76   587
47.78   557
47.8    600
47.82   630
47.84   604
47.86   560
47.88   584
47.9    554
47.92   582
47.94   607
47.96   580
47.98   622
48      649
48.02   565
48.04   699
48.06   667
48.08   704
48.1    731
48.12   825
48.14   873
48.16   890
48.18   883
48.2    1121
48.22   1207
48.24   1319
48.26   1286
48.28   1397
48.3    1484
48.32   1493
48.34   1498
48.36   1527
48.38   1544
48.4    1481
48.42   1369
48.44   1379
48.46   1267
48.48   1274
48.5    1235
48.52   1140
48.54   1068
48.56   991
48.58   1021
48.6    1048
48.62   1069
48.64   1113
48.66   1201
48.68   1308
48.7    1402
48.72   1560
48.74   1590
48.76   1860
48.78   1922
48.8    2012
48.82   2127
48.84   2214
48.86   2095
48.88   2168
48.9    2139
48.92   2241
48.94   2165
48.96   2185
48.98   2203
49      2245
49.02   2245
49.04   2347
49.06   2461
49.08   2383
49.1    2503
49.12   2451
49.14   2405
49.16   2417
49.18   2441
49.2    2342
49.22   2251
49.24   2125
49.26   2075
49.28   1954
49.3    1778
49.32   1635
49.34   1529
49.36   1450
49.38   1334
49.4    1236
49.42   1230
49.44   1115
49.46   1114
49.48   1160
49.5    1034
49.52   1146
49.54   1153
49.56   1199
49.58   1272
49.6    1323
49.62   1455
49.64   1487
49.66   1642
49.68   1706
49.7    1776
49.72   1967
49.74   1976
49.76   2111
49.78   2022
49.8    1946
49.82   1949
49.84   1887
49.86   1798
49.88   1667
49.9    1603
49.92   1593
49.94   1394
49.96   1335
49.98   1266
50      1257
50.02   1146
50.04   1134
50.06   1181
50.08   1192
50.1    1214
50.12   1209
50.14   1261
50.16   1329
50.18   1331
50.2    1390
50.22   1455
50.24   1505
50.26   1582
50.28   1681
50.3    1748
50.32   1807
50.34   1921
50.36   2052
50.38   2093
50.4    2162
50.42   2020
50.44   2043
50.46   1967
50.48   1832
50.5    1708
50.52   1622
50.54   1557
50.56   1328
50.58   1227
50.6    1099
50.62   1033
50.64   930
50.66   907
50.68   785
50.7    685
50.72   663
50.74   653
50.76   652
50.78   642
50.8    654
50.82   630
50.84   627
50.86   605
50.88   583
50.9    588
50.92   629
50.94   604
50.96   614
50.98   597
51      621
51.02   622
51.04   603
51.06   636
51.08   645
51.1    653
51.12   647
51.14   669
51.16   685
51.18   716
51.2    753
51.22   757
51.24   765
51.26   769
51.28   832
51.3    910
51.32   911
51.34   942
51.36   1014
51.38   1066
51.4    1153
51.42   1215
51.44   1399
51.46   1505
51.48   1731
51.5    1830
51.52   1987
51.54   2164
51.56   2278
51.58   2458
51.6    2536
51.62   2715
51.64   2723
51.66   2822
51.68   2744
51.7    2673
51.72   2630
51.74   2516
51.76   2344
51.78   2123
51.8    1969
51.82   1757
51.84   1667
51.86   1508
51.88   1316
51.9    1267
51.92   1104
51.94   1059
51.96   1018
51.98   958
52      912
52.02   874
52.04   838
52.06   957
52.08   856
52.1    989
52.12   986
52.14   971
52.16   1044
52.18   1024
52.2    1025
52.22   1060
52.24   1095
52.26   1021
52.28   1136
52.3    1154
52.32   1104
52.34   1085
52.36   1109
52.38   1125
52.4    1179
52.42   1209
52.44   1237
52.46   1322
52.48   1383
52.5    1350
52.52   1423
52.54   1410
52.56   1407
52.58   1405
52.6    1351
52.62   1315
52.64   1296
52.66   1242
52.68   1227
52.7    1146
52.72   1107
52.74   992
52.76   1044
52.78   1075
52.8    1002
52.82   988
52.84   1071
52.86   1098
52.88   1123
52.9    1212
52.92   1259
52.94   1313
52.96   1356
52.98   1388
53      1483
53.02   1472
53.04   1493
53.06   1662
53.08   1717
53.1    1749
53.12   1886
53.14   2119
53.16   2111
53.18   2116
53.2    2273
53.22   2328
53.24   2345
53.26   2268
53.28   2229
53.3    2121
53.32   2065
53.34   1933
53.36   1847
53.38   1719
53.4    1633
53.42   1577
53.44   1488
53.46   1482
53.48   1510
53.5    1538
53.52   1468
53.54   1577
53.56   1604
53.58   1623
53.6    1677
53.62   1649
53.64   1726
53.66   1697
53.68   1613
53.7    1573
53.72   1503
53.74   1414
53.76   1321
53.78   1239
53.8    1211
53.82   1108
53.84   1047
53.86   1030
53.88   1000
53.9    966
53.92   898
53.94   881
53.96   849
53.98   839
54      828
54.02   858
54.04   822
54.06   875
54.08   856
54.1    885
54.12   921
54.14   962
54.16   1030
54.18   1127
54.2    1106
54.22   1250
54.24   1345
54.26   1435
54.28   1444
54.3    1608
54.32   1666
54.34   1752
54.36   1893
54.38   1941
54.4    1877
54.42   1868
54.44   1924
54.46   1894
54.48   1894
54.5    1873
54.52   1791
54.54   1749
54.56   1788
54.58   1809
54.6    1826
54.62   1884
54.64   1925
54.66   1897
54.68   2034
54.7    2263
54.72   2327
54.74   2371
54.76   2549
54.78   2536
54.8    2605
54.82   2581
54.84   2624
54.86   2693
54.88   2634
54.9    2618
54.92   2469
54.94   2373
54.96   2248
54.98   2149
55      1972
55.02   1911
55.04   1769
55.06   1641
55.08   1597
55.1    1543
55.12   1598
55.14   1566
55.16   1593
55.18   1519
55.2    1591
55.22   1647
55.24   1644
55.26   1565
55.28   1692
55.3    1719
55.32   1599
55.34   1676
55.36   1530
55.38   1484
55.4    1508
55.42   1471
55.44   1390
55.46   1295
55.48   1306
55.5    1179
55.52   1225
55.54   1184
55.56   1240
55.58   1134
55.6    1234
55.62   1264
55.64   1212
55.66   1255
55.68   1322
55.7    1279
55.72   1315
55.74   1342
55.76   1344
55.78   1381
55.8    1332
55.82   1372
55.84   1391
55.86   1374
55.88   1402
55.9    1389
55.92   1361
55.94   1385
55.96   1384
55.98   1422
56      1450
56.02   1505
56.04   1461
56.06   1519
56.08   1610
56.1    1393
56.12   1451
56.14   1388
56.16   1422
56.18   1402
56.2    1408
56.22   1411
56.24   1357
56.26   1369
56.28   1441
56.3    1391
56.32   1511
56.34   1563
56.36   1567
56.38   1679
56.4    1714
56.42   1815
56.44   1789
56.46   1833
56.48   1911
56.5    1925
56.52   1851
56.54   1848
56.56   1712
56.58   1649
56.6    1543
56.62   1508
56.64   1470
56.66   1348
56.68   1307
56.7    1228
56.72   1061
56.74   1037
56.76   994
56.78   902
56.8    928
56.82   882
56.84   913
56.86   948
56.88   966
56.9    1061
56.92   1041
56.94   1110
56.96   1181
56.98   1350
57      1418
57.02   1450
57.04   1524
57.06   1667
57.08   1664
57.1    1655
57.12   1627
57.14   1643
57.16   1633
57.18   1664
57.2    1530
57.22   1495
57.24   1471
57.26   1413
57.28   1497
57.3    1387
57.32   1412
57.34   1386
57.36   1408
57.38   1315
57.4    1298
57.42   1327
57.44   1306
57.46   1272
57.48   1332
57.5    1243
57.52   1192
57.54   1210
57.56   1259
57.58   1236
57.6    1210
57.62   1214
57.64   1168
57.66   1207
57.68   1160
57.7    1187
57.72   1201
57.74   1222
57.76   1296
57.78   1204
57.8    1193
57.82   1289
57.84   1300
57.86   1347
57.88   1371
57.9    1445
57.92   1444
57.94   1589
57.96   1578
57.98   1645
58      1586
58.02   1625
58.04   1635
58.06   1599
58.08   1597
58.1    1527
58.12   1478
58.14   1426
58.16   1355
58.18   1278
58.2    1180
58.22   1105
58.24   1062
58.26   1005
58.28   935
58.3    882
58.32   844
58.34   764
58.36   720
58.38   667
58.4    723
58.42   647
58.44   640
58.46   653
58.48   598
58.5    590
58.52   586
58.54   577
58.56   551
58.58   579
58.6    651
58.62   606
58.64   582
58.66   640
58.68   596
58.7    697
58.72   677
58.74   688
58.76   701
58.78   653
58.8    720
58.82   704
58.84   725
58.86   772
58.88   769
58.9    755
58.92   836
58.94   800
58.96   897
58.98   856
59      909
59.02   897
59.04   841
59.06   863
59.08   900
59.1    791
59.12   801
59.14   795
59.16   740
59.18   693
59.2    664
59.22   640
59.24   645
59.26   559
59.28   612
59.3    546
59.32   573
59.34   582
59.36   610
59.38   524
59.4    584
59.42   518
59.44   588
59.46   592
59.48   632
59.5    637
59.52   676
59.54   716
59.56   719
59.58   676
59.6    766
59.62   738
59.64   791
59.66   735
59.68   740
59.7    689
59.72   750
59.74   771
59.76   759
59.78   722
59.8    699
59.82   711
59.84   673
59.86   679
59.88   685
59.9    697
59.92   672
59.94   631
59.96   651
59.98   658
60      571
60.02   627
60.04   590
60.06   647
60.08   549
60.1    590
60.12   556
60.14   538
60.16   598
60.18   543
60.2    534
60.22   520
60.24   506
60.26   582
60.28   531
60.3    543
60.32   600
60.34   530
60.36   600
60.38   558
60.4    547
60.42   592
60.44   598
60.46   594
60.48   557
60.5    599
60.52   540
60.54   554
60.56   575
60.58   603
60.6    621
60.62   551
60.64   622
60.66   581
60.68   583
60.7    592
60.72   643
60.74   615
60.76   652
60.78   593
60.8    661
60.82   654
60.84   585
60.86   688
60.88   663
60.9    723
60.92   719
60.94   765
60.96   733
60.98   796
61      848
61.02   787
61.04   841
61.06   909
61.08   893
61.1    911
61.12   923
61.14   936
61.16   922
61.18   932
61.2    955
61.22   984
61.24   882
61.26   903
61.28   856
61.3    891
61.32   845
61.34   794
61.36   787
61.38   743
61.4    708
61.42   699
61.44   723
61.46   652
61.48   680
61.5    691
61.52   691
61.54   677
61.56   665
61.58   752
61.6    710
61.62   681
61.64   729
61.66   754
61.68   803
61.7    750
61.72   777
61.74   842
61.76   820
61.78   837
61.8    893
61.82   969
61.84   856
61.86   900
61.88   873
61.9    955
61.92   916
61.94   898
61.96   912
61.98   908
62      880
62.02   826
62.04   900
62.06   849
62.08   756
62.1    805
62.12   835
62.14   801
62.16   728
62.18   715
62.2    715
62.22   718
62.24   692
62.26   694
62.28   751
62.3    756
62.32   782
62.34   790
62.36   742
62.38   785
62.4    807
62.42   788
62.44   778
62.46   785
62.48   803
62.5    756
62.52   796
62.54   746
62.56   782
62.58   800
62.6    819
62.62   849
62.64   819
62.66   811
62.68   833
62.7    865
62.72   889
62.74   869
62.76   896
62.78   932
62.8    953
62.82   938
62.84   949
62.86   974
62.88   1054
62.9    1039
62.92   1127
62.94   1094
62.96   1102
62.98   1125
63      1109
63.02   1162
63.04   1150
63.06   1150
63.08   1220
63.1    1159
63.12   1123
63.14   1109
63.16   1130
63.18   1095
63.2    1087
63.22   1205
63.24   1114
63.26   1193
63.28   1098
63.3    1090
63.32   1017
63.34   1009
63.36   984
63.38   967
63.4    941
63.42   911
63.44   870
63.46   909
63.48   884
63.5    905
63.52   929
63.54   876
63.56   823
63.58   880
63.6    913
63.62   966
63.64   1079
63.66   1052
63.68   1085
63.7    1219
63.72   1271
63.74   1345
63.76   1445
63.78   1516
63.8    1520
63.82   1511
63.84   1572
63.86   1507
63.88   1573
63.9    1612
63.92   1506
63.94   1519
63.96   1425
63.98   1400
64      1387
64.02   1335
64.04   1273
64.06   1285
64.08   1172
64.1    1167
64.12   1094
64.14   1043
64.16   1130
64.18   1023
64.2    931
64.22   959
64.24   951
64.26   937
64.28   962
64.3    942
64.32   936
64.34   965
64.36   997
64.38   1013
64.4    965
64.42   1039
64.44   1038
64.46   1055
64.48   1088
64.5    1103
64.52   1176
64.54   1124
64.56   1179
64.58   1161
64.6    1161
64.62   1068
64.64   1025
64.66   1087
64.68   924
64.7    932
64.72   917
64.74   897
64.76   862
64.78   851
64.8    737
64.82   745
64.84   731
64.86   655
64.88   641
64.9    602
64.92   588
64.94   560
64.96   568
64.98   572
65      562
65.02   529
65.04   511
65.06   541
65.08   522
65.1    568
65.12   549
65.14   567
65.16   582
65.18   582
65.2    614
65.22   628
65.24   591
65.26   626
65.28   657
65.3    672
65.32   663
65.34   617
65.36   662
65.38   661
65.4    622
65.42   637
65.44   613
65.46   669
65.48   614
65.5    628
65.52   573
65.54   611
65.56   578
65.58   612
65.6    586
65.62   610
65.64   563
65.66   622
65.68   587
65.7    623
65.72   543
65.74   656
65.76   646
65.78   668
65.8    704
65.82   714
65.84   741
65.86   767
65.88   814
65.9    757
65.92   803
65.94   794
65.96   799
65.98   886
66      853
66.02   858
66.04   899
66.06   984
66.08   1062
66.1    1088
66.12   1152
66.14   1200
66.16   1243
66.18   1368
66.2    1436
66.22   1531
66.24   1603
66.26   1504
66.28   1643
66.3    1646
66.32   1705
66.34   1687
66.36   1737
66.38   1620
66.4    1576
66.42   1492
66.44   1545
66.46   1402
66.48   1310
66.5    1340
66.52   1278
66.54   1142
66.56   1142
66.58   1097
66.6    993
66.62   996
66.64   936
66.66   923
66.68   860
66.7    812
66.72   770
66.74   787
66.76   791
66.78   751
66.8    765
66.82   828
66.84   825
66.86   852
66.88   865
66.9    914
66.92   912
66.94   930
66.96   984
66.98   995
67      990
67.02   929
67.04   958
67.06   950
67.08   979
67.1    935
67.12   899
67.14   875
67.16   843
67.18   840
67.2    873
67.22   868
67.24   777
67.26   734
67.28   748
67.3    749
67.32   754
67.34   704
67.36   689
67.38   648
67.4    676
67.42   698
67.44   674
67.46   633
67.48   688
67.5    600
67.52   637
67.54   655
67.56   669
67.58   650
67.6    672
67.62   691
67.64   734
67.66   716
67.68   749
67.7    670
67.72   763
67.74   684
67.76   726
67.78   732
67.8    712
67.82   710
67.84   704
67.86   722
67.88   741
67.9    724
67.92   724
67.94   754
67.96   750
67.98   753
68      748
68.02   769
68.04   757
68.06   731
68.08   795
68.1    793
68.12   813
68.14   770
68.16   835
68.18   801
68.2    796
68.22   857
68.24   817
68.26   764
68.28   750
68.3    715
68.32   771
68.34   733
68.36   717
68.38   679
68.4    685
68.42   631
68.44   616
68.46   635
68.48   613
68.5    588
68.52   564
68.54   549
68.56   589
68.58   518
68.6    524
68.62   533
68.64   523
68.66   527
68.68   468
68.7    499
68.72   531
68.74   487
68.76   554
68.78   512
68.8    483
68.82   525
68.84   532
68.86   541
68.88   626
68.9    585
68.92   605
68.94   669
68.96   651
68.98   689
69      744
69.02   743
69.04   728
69.06   696
69.08   721
69.1    789
69.12   801
69.14   782
69.16   792
69.18   807
69.2    836
69.22   888
69.24   913
69.26   971
69.28   982
69.3    1114
69.32   1227
69.34   1180
69.36   1177
69.38   1195
69.4    1271
69.42   1334
69.44   1183
69.46   1108
69.48   1130
69.5    1114
69.52   1140
69.54   1146
69.56   1081
69.58   1179
69.6    1196
69.62   1132
69.64   1175
69.66   1015
69.68   1051
69.7    1095
69.72   1093
69.74   1104
69.76   1080
69.78   1046
69.8    1080
69.82   1137
69.84   1081
69.86   1071
69.88   1121
69.9    1031
69.92   1035
69.94   1046
69.96   999
69.98   996
70      934
70.02   988
70.04   931
70.06   914
70.08   944
70.1    883
70.12   931
70.14   939
70.16   895
70.18   870
70.2    964
70.22   896
70.24   864
70.26   816
70.28   840
70.3    802
70.32   804
70.34   816
70.36   777
70.38   733
70.4    703
70.42   670
70.44   693
70.46   631
70.48   668
70.5    625
70.52   611
70.54   618
70.56   579
70.58   565
70.6    594
70.62   576
70.64   573
70.66   574
70.68   573
70.7    610
70.72   545
70.74   608
70.76   594
70.78   539
70.8    547
70.82   527
70.84   512
70.86   519
70.88   539
70.9    524
70.92   526
70.94   509
70.96   509
70.98   540
71      538
71.02   513
71.04   522
71.06   465
71.08   565
71.1    515
71.12   538
71.14   549
71.16   570
71.18   557
71.2    553
71.22   591
71.24   581
71.26   597
71.28   587
71.3    585
71.32   585
71.34   583
71.36   594
71.38   610
71.4    574
71.42   631
71.44   548
71.46   538
71.48   561
71.5    603
71.52   613
71.54   568
71.56   591
71.58   639
71.6    617
71.62   646
71.64   622
71.66   683
71.68   669
71.7    663
71.72   692
71.74   731
71.76   687
71.78   753
71.8    697
71.82   715
71.84   693
71.86   730
71.88   781
71.9    764
71.92   730
71.94   734
71.96   765
71.98   742
72      760
72.02   738
72.04   760
72.06   745
72.08   749
72.1    784
72.12   756
72.14   704
72.16   737
72.18   679
72.2    634
72.22   678
72.24   669
72.26   631
72.28   579
72.3    597
72.32   589
72.34   583
72.36   550
72.38   561
72.4    541
72.42   571
72.44   540
72.46   564
72.48   527
72.5    570
72.52   572
72.54   592
72.56   590
72.58   631
72.6    597
72.62   603
72.64   620
72.66   644
72.68   641
72.7    642
72.72   620
72.74   618
72.76   648
72.78   654
72.8    667
72.82   666
72.84   608
72.86   630
72.88   613
72.9    590
72.92   540
72.94   581
72.96   590
72.98   603
73      610
73.02   546
73.04   622
73.06   637
73.08   594
73.1    631
73.12   654
73.14   731
73.16   738
73.18   818
73.2    855
73.22   873
73.24   947
73.26   956
73.28   1009
73.3    1094
73.32   965
73.34   999
73.36   947
73.38   911
73.4    890
73.42   916
73.44   859
73.46   862
73.48   805
73.5    730
73.52   749
73.54   736
73.56   699
73.58   682
73.6    642
73.62   637
73.64   633
73.66   666
73.68   622
73.7    605
73.72   638
73.74   623
73.76   649
73.78   640
73.8    689
73.82   697
73.84   647
73.86   650
73.88   640
73.9    683
73.92   650
73.94   631
73.96   572
73.98   663
74      694
74.02   680
74.04   682
74.06   602
74.08   714
74.1    638
74.12   694
74.14   653
74.16   722
74.18   739
74.2    704
74.22   729
74.24   758
74.26   791
74.28   783
74.3    778
74.32   830
74.34   817
74.36   814
74.38   749
74.4    795
74.42   772
74.44   732
74.46   715
74.48   754
74.5    662
74.52   645
74.54   629
74.56   589
74.58   628
74.6    611
74.62   563
74.64   570
74.66   587
74.68   590
74.7    531
74.72   583
74.74   524
74.76   578
74.78   543
74.8    532
74.82   532
74.84   558
74.86   579
74.88   573
74.9    563
74.92   589
74.94   608
74.96   613
74.98   589
75      622
75.02   628
75.04   596
75.06   679
75.08   626
75.1    670
75.12   608
75.14   612
75.16   658
75.18   634
75.2    585
75.22   605
75.24   616
75.26   660
75.28   614
75.3    623
75.32   602
75.34   600
75.36   635
75.38   619
75.4    692
75.42   689
75.44   716
75.46   690
75.48   734
75.5    710
75.52   754
75.54   808
75.56   809
75.58   837
75.6    797
75.62   858
75.64   912
75.66   846
75.68   860
75.7    782
75.72   817
75.74   805
75.76   763
75.78   784
75.8    720
75.82   697
75.84   682
75.86   633
75.88   677
75.9    639
75.92   641
75.94   569
75.96   590
75.98   531
76      556
76.02   563
76.04   556
76.06   507
76.08   540
76.1    602
76.12   611
76.14   565
76.16   560
76.18   625
76.2    651
76.22   661
76.24   661
76.26   721
76.28   672
76.3    677
76.32   670
76.34   707
76.36   712
76.38   716
76.4    695
76.42   740
76.44   727
76.46   687
76.48   745
76.5    717
76.52   776
76.54   754
76.56   733
76.58   692
76.6    706
76.62   668
76.64   618
76.66   639
76.68   643
76.7    651
76.72   593
76.74   583
76.76   603
76.78   584
76.8    567
76.82   570
76.84   530
76.86   552
76.88   564
76.9    594
76.92   590
76.94   590
76.96   600
76.98   638
77      671
77.02   653
77.04   714
77.06   695
77.08   760
77.1    678
77.12   814
77.14   769
77.16   820
77.18   870
77.2    858
77.22   917
77.24   882
77.26   846
77.28   882
77.3    900
77.32   894
77.34   895
77.36   912
77.38   851
77.4    876
77.42   798
77.44   833
77.46   819
77.48   720
77.5    712
77.52   712
77.54   726
77.56   702
77.58   672
77.6    614
77.62   641
77.64   576
77.66   570
77.68   552
77.7    563
77.72   483
77.74   498
77.76   487
77.78   502
77.8    484
77.82   543
77.84   488
77.86   498
77.88   483
77.9    479
77.92   487
77.94   517
77.96   545
77.98   488
78      497
78.02   501
78.04   479
78.06   475
78.08   511
78.1    469
78.12   435
78.14   459
78.16   469
78.18   454
78.2    446
78.22   431
78.24   457
78.26   411
78.28   462
78.3    429
78.32   415
78.34   441
78.36   417
78.38   485
78.4    454
78.42   442
78.44   444
78.46   483
78.48   423
78.5    459
78.52   461
78.54   435
78.56   455
78.58   465
78.6    479
78.62   467
78.64   456
78.66   430
78.68   470
78.7    490
78.72   497
78.74   511
78.76   505
78.78   525
78.8    527
78.82   529
78.84   486
78.86   499
78.88   512
78.9    490
78.92   523
78.94   524
78.96   497
78.98   536
79      486
79.02   501
79.04   489
79.06   450
79.08   450
79.1    488
79.12   442
79.14   407
79.16   410
79.18   453
79.2    445
79.22   408
79.24   458
79.26   456
79.28   433
79.3    465
79.32   447
79.34   474
79.36   522
79.38   513
79.4    543
79.42   547
79.44   567
79.46   528
79.48   534
79.5    495
79.52   520
79.54   541
79.56   503
79.58   553
79.6    547
79.62   548
79.64   576
79.66   562
79.68   588
79.7    573
79.72   586
79.74   613
79.76   633
79.78   564
79.8    589
79.82   574
79.84   538
79.86   545
79.88   496
79.9    542
79.92   562
79.94   545
79.96   524
79.98   543
80      486
80.02   537
80.04   505
80.06   489
80.08   438
80.1    481
80.12   456
80.14   461
80.16   475
80.18   460
80.2    527
80.22   514
80.24   485
80.26   497
80.28   490
80.3    490
80.32   501
80.34   494
80.36   523
80.38   488
80.4    424
80.42   510
80.44   485
80.46   509
80.48   522
80.5    511
80.52   515
80.54   523
80.56   543
80.58   528
80.6    563
80.62   615
80.64   598
80.66   576
80.68   571
80.7    612
80.72   623
80.74   609
80.76   586
80.78   615
80.8    634
80.82   648
80.84   684
80.86   684
80.88   743
80.9    741
80.92   709
80.94   697
80.96   666
80.98   742
81      704
81.02   720
81.04   619
81.06   643
81.08   605
81.1    615
81.12   619
81.14   679
81.16   598
81.18   586
81.2    577
81.22   593
81.24   585
81.26   555
81.28   575
81.3    570
81.32   553
81.34   585
81.36   559
81.38   641
81.4    603
81.42   589
81.44   578
81.46   576
81.48   603
81.5    644
81.52   565
81.54   585
81.56   536
81.58   612
81.6    569
81.62   576
81.64   586
81.66   588
81.68   544
81.7    582
81.72   579
81.74   606
81.76   553
81.78   581
81.8    561
81.82   543
81.84   486
81.86   506
81.88   491
81.9    472
81.92   447
81.94   485
81.96   488
81.98   456
82      491
82.02   465
82.04   500
82.06   484
82.08   498
82.1    466
82.12   498
82.14   508
82.16   461
82.18   504
82.2    512
82.22   554
82.24   518
82.26   527
82.28   521
82.3    520
82.32   497
82.34   514
82.36   480
82.38   537
82.4    532
82.42   501
82.44   490
82.46   487
82.48   509
82.5    497
82.52   501
82.54   480
82.56   491
82.58   494
82.6    458
82.62   480
82.64   448
82.66   468
82.68   440
82.7    457
82.72   445
82.74   456
82.76   429
82.78   429
82.8    474
82.82   493
82.84   460
82.86   444
82.88   445
82.9    477
82.92   546
82.94   545
82.96   475
82.98   497
83      534
83.02   501
83.04   497
83.06   545
83.08   515
83.1    513
83.12   528
83.14   504
83.16   482
83.18   485
83.2    490
83.22   516
83.24   485
83.26   509
83.28   492
83.3    490
83.32   478
83.34   470
83.36   438
83.38   440
83.4    407
83.42   454
83.44   443
83.46   456
83.48   427
83.5    424
83.52   423
83.54   437
83.56   410
83.58   419
83.6    421
83.62   419
83.64   402
83.66   427
83.68   415
83.7    436
83.72   438
83.74   441
83.76   427
83.78   460
83.8    460
83.82   488
83.84   475
83.86   445
83.88   475
83.9    443
83.92   496
83.94   457
83.96   431
83.98   439
84      484
84.02   506
84.04   431
84.06   470
84.08   477
84.1    456
84.12   452
84.14   442
84.16   484
84.18   518
84.2    498
84.22   451
84.24   513
84.26   492
84.28   561
84.3    536
84.32   535
84.34   565
84.36   572
84.38   537
84.4    572
84.42   559
84.44   616
84.46   554
84.48   606
84.5    600
84.52   539
84.54   519
84.56   575
84.58   537
84.6    504
84.62   573
84.64   523
84.66   457
84.68   490
84.7    493
84.72   495
84.74   524
84.76   464
84.78   447
84.8    444
84.82   416
84.84   421
84.86   415
84.88   386
84.9    390
84.92   393
84.94   416
84.96   408
84.98   411
85      410
85.02   405
85.04   432
85.06   390
85.08   432
85.1    430
85.12   454
85.14   436
85.16   384
85.18   416
85.2    451
85.22   400
85.24   390
85.26   425
85.28   416
85.3    416
85.32   392
85.34   417
85.36   380
85.38   446
85.4    439
85.42   372
85.44   435
85.46   416
85.48   440
85.5    409
85.52   392
85.54   408
85.56   374
85.58   443
85.6    385
85.62   391
85.64   390
85.66   389
85.68   396
85.7    380
85.72   392
85.74   391
85.76   385
85.78   378
85.8    357
85.82   366
85.84   388
85.86   389
85.88   403
85.9    394
85.92   417
85.94   438
85.96   418
85.98   463
86      446
86.02   441
86.04   425
86.06   448
86.08   435
86.1    486
86.12   418
86.14   443
86.16   470
86.18   499
86.2    465
86.22   473
86.24   449
86.26   501
86.28   492
86.3    468
86.32   474
86.34   475
86.36   486
86.38   430
86.4    418
86.42   486
86.44   480
86.46   440
86.48   445
86.5    429
86.52   409
86.54   416
86.56   408
86.58   480
86.6    438
86.62   434
86.64   461
86.66   431
86.68   409
86.7    456
86.72   440
86.74   451
86.76   413
86.78   413
86.8    378
86.82   390
86.84   431
86.86   434
86.88   355
86.9    425
86.92   360
86.94   391
86.96   354
86.98   383
87      387
87.02   412
87.04   360
87.06   361
87.08   394
87.1    379
87.12   394
87.14   359
87.16   341
87.18   387
87.2    365
87.22   401
87.24   371
87.26   389
87.28   392
87.3    434
87.32   426
87.34   432
87.36   415
87.38   402
87.4    480
87.42   444
87.44   454
87.46   496
87.48   495
87.5    498
87.52   496
87.54   476
87.56   470
87.58   467
87.6    438
87.62   443
87.64   443
87.66   421
87.68   432
87.7    441
87.72   424
87.74   447
87.76   455
87.78   447
87.8    460
87.82   424
87.84   450
87.86   393
87.88   388
87.9    451
87.92   383
87.94   439
87.96   421
87.98   427
88      414
88.02   401
88.04   431
88.06   428
88.08   407
88.1    420
88.12   405
88.14   413
88.16   425
88.18   442
88.2    430
88.22   454
88.24   455
88.26   454
88.28   503
88.3    538
88.32   534
88.34   533
88.36   575
88.38   551
88.4    546
88.42   589
88.44   563
88.46   604
88.48   654
88.5    621
88.52   564
88.54   621
88.56   637
88.58   596
88.6    595
88.62   598
88.64   637
88.66   629
88.68   555
88.7    580
88.72   538
88.74   572
88.76   542
88.78   516
88.8    518
88.82   525
88.84   483
88.86   521
88.88   476
88.9    464
88.92   464
88.94   452
88.96   423
88.98   448
89      457
89.02   439
89.04   432
89.06   421
89.08   437
89.1    458
89.12   419
89.14   448
89.16   436
89.18   454
89.2    396
89.22   403
89.24   442
89.26   445
89.28   462
89.3    442
89.32   484
89.34   479
89.36   498
89.38   514
89.4    528
89.42   490
89.44   517
89.46   522
89.48   559
89.5    513
89.52   517
89.54   513
89.56   506
89.58   498
89.6    479
89.62   518
89.64   471
89.66   470
89.68   482
89.7    498
89.72   474
89.74   469
89.76   490
89.78   428
89.8    515
89.82   465
89.84   495
89.86   455
89.88   522
89.9    500
89.92   492
89.94   545
89.96   528
89.98   512
90      528
90.02   576
90.04   501
90.06   511
90.08   524
90.1    505
90.12   531
90.14   569
90.16   535
90.18   563
90.2    568
90.22   573
90.24   551
90.26   534
90.28   564
90.3    570
90.32   559
90.34   561
90.36   561
90.38   547
90.4    603
90.42   577
90.44   554
90.46   521
90.48   533
90.5    527
90.52   556
90.54   513
90.56   531
90.58   503
90.6    527
90.62   463
90.64   478
90.66   489
90.68   503
90.7    511
90.72   448
90.74   516
90.76   458
90.78   479
90.8    511
90.82   482
90.84   509
90.86   493
90.88   516
90.9    490
90.92   527
90.94   542
90.96   431
90.98   490
91      480
91.02   491
91.04   442
91.06   473
91.08   473
91.1    490
91.12   497
91.14   462
91.16   498
91.18   471
91.2    531
91.22   476
91.24   469
91.26   517
91.28   470
91.3    500
91.32   450
91.34   474
91.36   473
91.38   444
91.4    449
91.42   435
91.44   437
91.46   456
91.48   419
91.5    415
91.52   423
91.54   409
91.56   436
91.58   408
91.6    448
91.62   409
91.64   399
91.66   377
91.68   373
91.7    372
91.72   394
91.74   378
91.76   377
91.78   437
91.8    424
91.82   396
91.84   392
91.86   379
91.88   420
91.9    395
91.92   396
91.94   409
91.96   434
91.98   442
92      423
92.02   493
92.04   416
92.06   420
92.08   446
92.1    424
92.12   448
92.14   422
92.16   416
92.18   416
92.2    408
92.22   413
92.24   450
92.26   399
92.28   386
92.3    454
92.32   428
92.34   391
92.36   440
92.38   419
92.4    405
92.42   428
92.44   414
92.46   393
92.48   398
92.5    434
92.52   452
92.54   427
92.56   425
92.58   431
92.6    433
92.62   438
92.64   418
92.66   376
92.68   383
92.7    407
92.72   402
92.74   419
92.76   412
92.78   416
92.8    419
92.82   430
92.84   384
92.86   376
92.88   399
92.9    393
92.92   438
92.94   367
92.96   426
92.98   428
93      417
93.02   403
93.04   417
93.06   472
93.08   493
93.1    461
93.12   489
93.14   475
93.16   464
93.18   499
93.2    497
93.22   423
93.24   471
93.26   477
93.28   457
93.3    440
93.32   457
93.34   447
93.36   464
93.38   439
93.4    439
93.42   446
93.44   478
93.46   467
93.48   459
93.5    442
93.52   495
93.54   424
93.56   432
93.58   487
93.6    450
93.62   408
93.64   397
93.66   432
93.68   400
93.7    435
93.72   394
93.74   430
93.76   443
93.78   458
93.8    451
93.82   401
93.84   471
93.86   456
93.88   440
93.9    436
93.92   438
93.94   452
93.96   509
93.98   449
94      475
94.02   469
94.04   476
94.06   485
94.08   526
94.1    472
94.12   501
94.14   495
94.16   505
94.18   474
94.2    474
94.22   558
94.24   498
94.26   499
94.28   510
94.3    492
94.32   523
94.34   465
94.36   443
94.38   479
94.4    482
94.42   446
94.44   481
94.46   487
94.48   471
94.5    437
94.52   442
94.54   407
94.56   434
94.58   504
94.6    411
94.62   437
94.64   434
94.66   414
94.68   398
94.7    424
94.72   377
94.74   391
94.76   381
94.78   402
94.8    418
94.82   411
94.84   416
94.86   369
94.88   389
94.9    390
94.92   387
94.94   361
94.96   383
94.98   389
95      342
95.02   365
95.04   413
95.06   385
95.08   375
95.1    369
95.12   341
95.14   366
95.16   371
95.18   354
95.2    359
95.22   362
95.24   364
95.26   351
95.28   390
95.3    394
95.32   375
95.34   372
95.36   441
95.38   427
95.4    379
95.42   402
95.44   434
95.46   448
95.48   460
95.5    430
95.52   455
95.54   482
95.56   476
95.58   413
95.6    461
95.62   484
95.64   434
95.66   407
95.68   452
95.7    442
95.72   392
95.74   410
95.76   412
95.78   448
95.8    455
95.82   429
95.84   406
95.86   416
95.88   429
95.9    440
95.92   452
95.94   412
95.96   426
95.98   428
96      449
96.02   421
96.04   445
96.06   438
96.08   417
96.1    412
96.12   459
96.14   422
96.16   413
96.18   454
96.2    397
96.22   394
96.24   383
96.26   383
96.28   416
96.3    434
96.32   408
96.34   391
96.36   419
96.38   396
96.4    356
96.42   396
96.44   403
96.46   401
96.48   357
96.5    407
96.52   360
96.54   372
96.56   359
96.58   392
96.6    382
96.62   378
96.64   367
96.66   441
96.68   379
96.7    396
96.72   452
96.74   422
96.76   411
96.78   447
96.8    462
96.82   481
96.84   475
96.86   500
96.88   487
96.9    481
96.92   520
96.94   515
96.96   570
96.98   572
97      534
97.02   515
97.04   527
97.06   481
97.08   473
97.1    449
97.12   431
97.14   435
97.16   473
97.18   513
97.2    446
97.22   471
97.24   446
97.26   449
97.28   431
97.3    443
97.32   455
97.34   460
97.36   405
97.38   383
97.4    404
97.42   386
97.44   360
97.46   393
97.48   364
97.5    373
97.52   324
97.54   399
97.56   337
97.58   358
97.6    328
97.62   359
97.64   361
97.66   337
97.68   352
97.7    330
97.72   359
97.74   381
97.76   363
97.78   398
97.8    394
97.82   368
97.84   410
97.86   359
97.88   391
97.9    353
97.92   360
97.94   377
97.96   366
97.98   422
98      404
98.02   395
98.04   406
98.06   409
98.08   407
98.1    357
98.12   371
98.14   395
98.16   391
98.18   392
98.2    416
98.22   402
98.24   393
98.26   394
98.28   408
98.3    403
98.32   383
98.34   398
98.36   418
98.38   418
98.4    392
98.42   451
98.44   394
98.46   404
98.48   414
98.5    423
98.52   379
98.54   404
98.56   407
98.58   362
98.6    389
98.62   392
98.64   363
98.66   386
98.68   404
98.7    384
98.72   382
98.74   378
98.76   367
98.78   387
98.8    385
98.82   394
98.84   372
98.86   381
98.88   381
98.9    375
98.92   402
98.94   368
98.96   390
98.98   391
99      380
99.02   355
99.04   326
99.06   386
99.08   361
99.1    384
99.12   403
99.14   392
99.16   376
99.18   367
99.2    422
99.22   398
99.24   403
99.26   403
99.28   392
99.3    416
99.32   414
99.34   398
99.36   409
99.38   397
99.4    408
99.42   402
99.44   411
99.46   430
99.48   391
99.5    417
99.52   424
99.54   380
99.56   412
99.58   434
99.6    436
99.62   405
99.64   395
99.66   422
99.68   399
99.7    451
99.72   398
99.74   407
99.76   438
99.78   452
99.8    447
99.82   487
99.84   487
99.86   481
99.88   476
99.9    491
99.92   455
99.94   479
99.96   513
99.98   456
100     477
100.02  448
100.04  466
100.06  445
100.08  466
100.1   493
100.12  478
100.14  462
100.16  448
100.18  459
100.2   452
100.22  446
100.24  498
100.26  456
100.28  486
100.3   454
100.32  472
100.34  479
100.36  457
100.38  460
100.4   511
100.42  464
100.44  512
100.46  506
100.48  509
100.5   519
100.52  486
100.54  565
100.56  527
100.58  574
100.6   559
100.62  635
100.64  595
100.66  608
100.68  619
100.7   569
100.72  602
100.74  565
100.76  551
100.78  554
100.8   554
100.82  578
100.84  563
100.86  524
100.88  540
100.9   511
100.92  503
100.94  525
100.96  563
100.98  586
101     565
101.02  621
101.04  595
101.06  560
101.08  553
101.1   573
101.12  565
101.14  546
101.16  523
101.18  520
101.2   510
101.22  497
101.24  537
101.26  514
101.28  490
101.3   560
101.32  509
101.34  505
101.36  522
101.38  493
101.4   496
101.42  468
101.44  482
101.46  505
101.48  495
101.5   499
101.52  508
101.54  505
101.56  447
101.58  495
101.6   491
101.62  419
101.64  467
101.66  467
101.68  445
101.7   447
101.72  445
101.74  452
101.76  439
101.78  422
101.8   444
101.82  441
101.84  402
101.86  506
101.88  462
101.9   413
101.92  379
101.94  455
101.96  472
101.98  426
102     406
102.02  442
102.04  446
102.06  424
102.08  396
102.1   428
102.12  427
102.14  436
102.16  403
102.18  388
102.2   387
102.22  435
102.24  434
102.26  397
102.28  426
102.3   439
102.32  416
102.34  420
102.36  423
102.38  419
102.4   464
102.42  387
102.44  407
102.46  415
102.48  399
102.5   406
102.52  443
102.54  410
102.56  412
102.58  402
102.6   418
102.62  431
102.64  440
102.66  413
102.68  398
102.7   389
102.72  376
102.74  410
102.76  429
102.78  381
102.8   422
102.82  371
102.84  396
102.86  389
102.88  357
102.9   430
102.92  431
102.94  433
102.96  407
102.98  408
103     428
103.02  434
103.04  424
103.06  465
103.08  452
103.1   423
103.12  441
103.14  447
103.16  440
103.18  443
103.2   443
103.22  418
103.24  445
103.26  434
103.28  409
103.3   446
103.32  455
103.34  372
103.36  441
103.38  433
103.4   453
103.42  428
103.44  417
103.46  414
103.48  419
103.5   397
103.52  430
103.54  403
103.56  418
103.58  453
103.6   436
103.62  426
103.64  456
103.66  442
103.68  460
103.7   445
103.72  439
103.74  480
103.76  471
103.78  497
103.8   452
103.82  459
103.84  520
103.86  442
103.88  455
103.9   482
103.92  488
103.94  430
103.96  468
103.98  467
104     502
104.02  481
104.04  439
104.06  460
104.08  475
104.1   439
104.12  494
104.14  480
104.16  498
104.18  510
104.2   523
104.22  518
104.24  472
104.26  498
104.28  491
104.3   473
104.32  486
104.34  482
104.36  473
104.38  403
104.4   399
104.42  443
104.44  379
104.46  446
104.48  426
104.5   429
104.52  385
104.54  388
104.56  426
104.58  444
104.6   429
104.62  421
104.64  410
104.66  389
104.68  390
104.7   399
104.72  398
104.74  421
104.76  393
104.78  398
104.8   375
104.82  376
104.84  376
104.86  347
104.88  361
104.9   356
104.92  399
104.94  388
104.96  413
104.98  375
105     390
105.02  428
105.04  360
105.06  382
105.08  366
105.1   395
105.12  393
105.14  408
105.16  454
105.18  394
105.2   410
105.22  432
105.24  453
105.26  451
105.28  441
105.3   435
105.32  449
105.34  438
105.36  436
105.38  459
105.4   450
105.42  478
105.44  501
105.46  517
105.48  455
105.5   458
105.52  493
105.54  420
105.56  468
105.58  513
105.6   472
105.62  480
105.64  460
105.66  458
105.68  447
105.7   489
105.72  460
105.74  475
105.76  448
105.78  480
105.8   509
105.82  410
105.84  461
105.86  455
105.88  476
105.9   488
105.92  476
105.94  483
105.96  453
105.98  530
106     482
106.02  444
106.04  443
106.06  472
106.08  482
106.1   478
106.12  443
106.14  422
106.16  442
106.18  404
106.2   456
106.22  428
106.24  398
106.26  449
106.28  415
106.3   403
106.32  421
106.34  417
106.36  420
106.38  406
106.4   403
106.42  422
106.44  418
106.46  416
106.48  422
106.5   404
106.52  378
106.54  400
106.56  417
106.58  412
106.6   383
106.62  364
106.64  381
106.66  350
106.68  362
106.7   372
106.72  382
106.74  384
106.76  385
106.78  409
106.8   383
106.82  380
106.84  385
106.86  412
106.88  388
106.9   404
106.92  376
106.94  369
106.96  352
106.98  381
107     407
107.02  395
107.04  373
107.06  407
107.08  436
107.1   351
107.12  418
107.14  423
107.16  413
107.18  405
107.2   384
107.22  400
107.24  376
107.26  439
107.28  445
107.3   372
107.32  422
107.34  412
107.36  418
107.38  465
107.4   470
107.42  509
107.44  486
107.46  499
107.48  530
107.5   511
107.52  514
107.54  575
107.56  541
107.58  545
107.6   549
107.62  574
107.64  551
107.66  553
107.68  572
107.7   559
107.72  555
107.74  527
107.76  555
107.78  544
107.8   559
107.82  526
107.84  558
107.86  508
107.88  493
107.9   528
107.92  544
107.94  529
107.96  543
107.98  515
108     534
108.02  554
108.04  521
108.06  486
108.08  522
108.1   536
108.12  478
108.14  443
108.16  513
108.18  493
108.2   469
108.22  501
108.24  469
108.26  507
108.28  486
108.3   491
108.32  507
108.34  471
108.36  496
108.38  487
108.4   482
108.42  480
108.44  510
108.46  458
108.48  492
108.5   448
108.52  508
108.54  493
108.56  490
108.58  505
108.6   460
108.62  472
108.64  443
108.66  456
108.68  470
108.7   499
108.72  465
108.74  484
108.76  496
108.78  521
108.8   488
108.82  485
108.84  506
108.86  537
108.88  488
108.9   473
108.92  537
108.94  480
108.96  470
108.98  529
109     499
109.02  437
109.04  436
109.06  426
109.08  419
109.1   440
109.12  422
109.14  463
109.16  448
109.18  452
109.2   465
109.22  447
109.24  422
109.26  416
109.28  418
109.3   448
109.32  444
109.34  453
109.36  447
109.38  431
109.4   426
109.42  421
109.44  398
109.46  404
109.48  434
109.5   415
109.52  428
109.54  429
109.56  409
109.58  425
109.6   415
109.62  384
109.64  432
109.66  417
109.68  388
109.7   362
109.72  434
109.74  388
109.76  398
109.78  412
109.8   455
109.82  428
109.84  403
109.86  420
109.88  400
109.9   423
109.92  440
109.94  409
109.96  408
109.98  443
110     416
110.02  428
110.04  434
110.06  403
110.08  423
110.1   395
110.12  459
110.14  368
110.16  422
110.18  391
110.2   415
110.22  397
110.24  432
110.26  397
110.28  427
110.3   462
110.32  453
110.34  465
110.36  438
110.38  454
110.4   474
110.42  501
110.44  466
110.46  465
110.48  432
110.5   479
110.52  446
110.54  454
110.56  416
110.58  475
110.6   504
110.62  419
110.64  435
110.66  428
110.68  429
110.7   453
110.72  454
110.74  472
110.76  438
110.78  445
110.8   454
110.82  467
110.84  474
110.86  435
110.88  469
110.9   471
110.92  462
110.94  472
110.96  490
110.98  497
111     503
111.02  484
111.04  473
111.06  455
111.08  474
111.1   446
111.12  450
111.14  433
111.16  474
111.18  459
111.2   480
111.22  501
111.24  466
111.26  490
111.28  495
111.3   524
111.32  449
111.34  536
111.36  479
111.38  490
111.4   497
111.42  475
111.44  490
111.46  499
111.48  476
111.5   512
111.52  489
111.54  482
111.56  460
111.58  526
111.6   528
111.62  542
111.64  487
111.66  507
111.68  505
111.7   483
111.72  490
111.74  509
111.76  524
111.78  505
111.8   473
111.82  548
111.84  459
111.86  461
111.88  456
111.9   505
111.92  492
111.94  536
111.96  507
111.98  499
112     513
112.02  475
112.04  484
112.06  524
112.08  493
112.1   475
112.12  501
112.14  454
112.16  480
112.18  487
112.2   473
112.22  495
112.24  529
112.26  509
112.28  525
112.3   543
112.32  503
112.34  477
112.36  475
112.38  531
112.4   503
112.42  466
112.44  542
112.46  495
112.48  512
112.5   518
112.52  521
112.54  509
112.56  476
112.58  509
112.6   499
112.62  534
112.64  486
112.66  531
112.68  488
112.7   444
112.72  497
112.74  541
112.76  463
112.78  517
112.8   501
112.82  517
112.84  525
112.86  480
112.88  530
112.9   491
112.92  492
112.94  537
112.96  524
112.98  497
113     518
113.02  489
113.04  493
113.06  476
113.08  488
113.1   443
113.12  450
113.14  408
113.16  404
113.18  426
113.2   434
113.22  448
113.24  407
113.26  414
113.28  451
113.3   446
113.32  394
113.34  439
113.36  426
113.38  457
113.4   443
113.42  448
113.44  447
113.46  427
113.48  450
113.5   371
113.52  405
113.54  412
113.56  407
113.58  394
113.6   387
113.62  408
113.64  401
113.66  426
113.68  360
113.7   411
113.72  400
113.74  379
113.76  383
113.78  392
113.8   446
113.82  410
113.84  413
113.86  430
113.88  449
113.9   425
113.92  429
113.94  397
113.96  471
113.98  452
114     398
114.02  440
114.04  465
114.06  457
114.08  461
114.1   454
114.12  501
114.14  449
114.16  486
114.18  508
114.2   495
114.22  505
114.24  486
114.26  572
114.28  502
114.3   504
114.32  521
114.34  492
114.36  533
114.38  491
114.4   454
114.42  506
114.44  474
114.46  437
114.48  469
114.5   532
114.52  511
114.54  466
114.56  519
114.58  462
114.6   508
114.62  514
114.64  436
114.66  468
114.68  444
114.7   432
114.72  477
114.74  421
114.76  377
114.78  446
114.8   443
114.82  433
114.84  421
114.86  446
114.88  493
114.9   409
114.92  447
114.94  453
114.96  441
114.98  410
115     436
115.02  433
115.04  439
115.06  402
115.08  442
115.1   424
115.12  469
115.14  449
115.16  428
115.18  435
115.2   432
115.22  440
115.24  395
115.26  392
115.28  431
115.3   396
115.32  381
115.34  421
115.36  406
115.38  418
115.4   430
115.42  450
115.44  432
115.46  428
115.48  428
115.5   363
115.52  410
115.54  395
115.56  413
115.58  471
115.6   418
115.62  428
115.64  442
115.66  445
115.68  400
115.7   425
115.72  440
115.74  418
115.76  472
115.78  439
115.8   429
115.82  458
115.84  459
115.86  432
115.88  432
115.9   403
115.92  472
115.94  462
115.96  385
115.98  429
116     399
116.02  401
116.04  415
116.06  417
116.08  391
116.1   413
116.12  392
116.14  397
116.16  435
116.18  437
116.2   449
116.22  390
116.24  426
116.26  404
116.28  441
116.3   416
116.32  426
116.34  422
116.36  403
116.38  412
116.4   431
116.42  428
116.44  413
116.46  409
116.48  436
116.5   419
116.52  465
116.54  473
116.56  450
116.58  452
116.6   447
116.62  471
116.64  469
116.66  420
116.68  469
116.7   476
116.72  471
116.74  473
116.76  460
116.78  481
116.8   462
116.82  473
116.84  486
116.86  469
116.88  482
116.9   474
116.92  454
116.94  479
116.96  425
116.98  482
117     510
117.02  503
117.04  516
117.06  508
117.08  517
117.1   463
117.12  543
117.14  487
117.16  489
117.18  509
117.2   485
117.22  499
117.24  520
117.26  518
117.28  519
117.3   509
117.32  553
117.34  490
117.36  496
117.38  456
117.4   486
117.42  477
117.44  499
117.46  471
117.48  460
117.5   456
117.52  460
117.54  429
117.56  460
117.58  424
117.6   479
117.62  450
117.64  417
117.66  485
117.68  439
117.7   457
117.72  430
117.74  421
117.76  427
117.78  392
117.8   377
117.82  417
117.84  402
117.86  396
117.88  420
117.9   396
117.92  419
117.94  397
117.96  389
117.98  359
118     419
118.02  402
118.04  383
118.06  369
118.08  366
118.1   402
118.12  385
118.14  410
118.16  356
118.18  385
118.2   399
118.22  389
118.24  400
118.26  383
118.28  382
118.3   387
118.32  362
118.34  437
118.36  401
118.38  434
118.4   403
118.42  406
118.44  390
118.46  332
118.48  352
118.5   379
118.52  373
118.54  408
118.56  367
118.58  363
118.6   398
118.62  394
118.64  415
118.66  429
118.68  417
118.7   428
118.72  443
118.74  401
118.76  435
118.78  426
118.8   438
118.82  433
118.84  437
118.86  445
118.88  441
118.9   444
118.92  457
118.94  436
118.96  454
118.98  473
119     473
119.02  489
119.04  411
119.06  433
119.08  418
119.1   471
119.12  449
119.14  454
119.16  472
119.18  448
119.2   475
119.22  453
119.24  462
119.26  468
119.28  472
119.3   438
119.32  492
119.34  503
119.36  476
119.38  433
119.4   448
119.42  449
119.44  432
119.46  438
119.48  469
119.5   460
119.52  457
119.54  440
119.56  422
119.58  467
119.6   469
119.62  433
119.64  430
119.66  417
119.68  439
